Patient Number 09216CB Lead Number 1 Time Step .0009 Data Points 5831
0.0000000e+00
 8.4754557e-03
 1.6920448e-02
 2.5312899e-02
 3.3636404e-02
 4.1841725e-02
 4.9900939e-02
 5.7809995e-02
 6.5546200e-02
 7.3086724e-02
 8.0343615e-02
 8.7361473e-02
 9.4112857e-02
 1.0059399e-01
 1.0670921e-01
 1.1246828e-01
 1.1788800e-01
 1.2295763e-01
 1.2764672e-01
 1.3184562e-01
 1.3565642e-01
 1.3906107e-01
 1.4206200e-01
 1.4452210e-01
 1.4652000e-01
 1.4808363e-01
 1.4921034e-01
 1.4984110e-01
 1.4992219e-01
 1.4956707e-01
 1.4876141e-01
 1.4751260e-01
 1.4570000e-01
 1.4343994e-01
 1.4074837e-01
 1.3763971e-01
 1.3405940e-01
 1.3000512e-01
 1.2556882e-01
 1.2075210e-01
 1.1558000e-01
 1.0995285e-01
 1.0399760e-01
 9.7731169e-02
 9.1179444e-02
 8.4298593e-02
 7.7130005e-02
 6.9739452e-02
 6.2137400e-02
 5.4341264e-02
 4.6334192e-02
 3.8196788e-02
 2.9944004e-02
 2.1599912e-02
 1.3174636e-02
 4.7089995e-03
-3.7674400e-03
-1.2234917e-02
-2.0667682e-02
-2.9020985e-02
-3.7285095e-02
-4.5436046e-02
-5.3460539e-02
-6.1281389e-02
-6.8904600e-02
-7.6320122e-02
-8.3513006e-02
-9.0433403e-02
-9.7016598e-02
-1.0331652e-01
-1.0930614e-01
-1.1497650e-01
-1.2019600e-01
-1.2505179e-01
-1.2953153e-01
-1.3362845e-01
-1.3726864e-01
-1.4042275e-01
-1.4316244e-01
-1.4546900e-01
-1.4734000e-01
-1.4864523e-01
-1.4949965e-01
-1.4990477e-01
-1.4987335e-01
-1.4930900e-01
-1.4822979e-01
-1.4671579e-01
-1.4476400e-01
-1.4236486e-01
-1.3941472e-01
-1.3605493e-01
-1.3228841e-01
-1.2813496e-01
-1.2350116e-01
-1.1846792e-01
-1.1308800e-01
-1.0736457e-01
-1.0129451e-01
-9.4846191e-02
-8.8125227e-02
-8.1135429e-02
-7.3906438e-02
-6.6395544e-02
-5.8678200e-02
-5.0787721e-02
-4.2743835e-02
-3.4555684e-02
-2.6241230e-02
-1.7855977e-02
-9.4157553e-03
-9.4236399e-04
 7.5348800e-03
 1.5984229e-02
 2.4383734e-02
 3.2715646e-02
 4.0937835e-02
 4.9012302e-02
 5.6939573e-02
 6.4694875e-02
 7.2263000e-02
 7.9549046e-02
 8.6594397e-02
 9.3376266e-02
 9.9888743e-02
 1.0604966e-01
 1.1184431e-01
 1.1730358e-01
 1.2241000e-01
 1.2715186e-01
 1.3139824e-01
 1.3525285e-01
 1.3870267e-01
 1.4175187e-01
 1.4427503e-01
 1.4631873e-01
 1.4793200e-01
 1.4910586e-01
 1.4980175e-01
 1.4993434e-01
 1.4962888e-01
 1.4887246e-01
 1.4767735e-01
 1.4592619e-01
 1.4371200e-01
 1.4106882e-01
 1.3800506e-01
 1.3448442e-01
 1.3047402e-01
 1.2608108e-01
 1.2130436e-01
 1.1617681e-01
 1.1059600e-01
 1.0467477e-01
 9.8442241e-02
 9.1921355e-02
 8.5080725e-02
 7.7937107e-02
 7.0571660e-02
 6.2991289e-02
 5.5219000e-02
 4.7230903e-02
 3.9107029e-02
 3.0865910e-02
 2.2531091e-02
 1.4113923e-02
 5.6503901e-03
-2.8257230e-03
-1.1294880e-02
-1.9734383e-02
-2.8096887e-02
-3.6371990e-02
-4.4536443e-02
-5.2577053e-02
-6.0423150e-02
-6.8067145e-02
-7.5507400e-02
-8.2724296e-02
-8.9682981e-02
-9.6298603e-02
-1.0263156e-01
-1.0865583e-01
-1.1436660e-01
-1.1963609e-01
-1.2453000e-01
-1.2905318e-01
-1.3319198e-01
-1.3689148e-01
-1.4009204e-01
-1.4287952e-01
-1.4523317e-01
-1.4715928e-01
-1.4852400e-01
-1.4942663e-01
-1.4988199e-01
-1.4989893e-01
-1.4940142e-01
-1.4837055e-01
-1.4690608e-01
-1.4500107e-01
-1.4266000e-01
-1.3976367e-01
-1.3644838e-01
-1.3272652e-01
-1.2861695e-01
-1.2404012e-01
-1.1904342e-01
-1.1370340e-01
-1.0801600e-01
-1.0198996e-01
-9.5576323e-02
-8.8885628e-02
-8.1924408e-02
-7.4722342e-02
-6.7242675e-02
-5.9544163e-02
-5.1672600e-02
-4.3644235e-02
-3.5473322e-02
-2.7168712e-02
-1.8790856e-02
-1.0355563e-02
-1.8846800e-03
 6.5938600e-03
 1.5047440e-02
 2.3453701e-02
 3.1793582e-02
 4.0032089e-02
 4.8121859e-02
 5.6066971e-02
 6.3841582e-02
 7.1435144e-02
 7.8751800e-02
 8.5824029e-02
 9.2636363e-02
 9.9179100e-02
 1.0538567e-01
 1.1121619e-01
 1.1671466e-01
 1.2185864e-01
 1.2665000e-01
 1.3094634e-01
 1.3484425e-01
 1.3833943e-01
 1.4143492e-01
 1.4402236e-01
 1.4611207e-01
 1.4777484e-01
 1.4899600e-01
 1.4975486e-01
 1.4994130e-01
 1.4968508e-01
 1.4897830e-01
 1.4783466e-01
 1.4614720e-01
 1.4397863e-01
 1.4138400e-01
 1.3836504e-01
 1.3490312e-01
 1.3093828e-01
 1.2658854e-01
 1.2185264e-01
 1.1676718e-01
 1.1123559e-01
 1.0534800e-01
 9.9149743e-02
 9.2659385e-02
 8.5859066e-02
 7.8741480e-02
 7.1401189e-02
 6.3843026e-02
 5.6093579e-02
 4.8126200e-02
 4.0015780e-02
 3.1786668e-02
 2.3461233e-02
 1.5052669e-02
 6.5916063e-03
-1.8838834e-03
-1.0354618e-02
-1.8800000e-02
-2.7171748e-02
-3.5457512e-02
-4.3635359e-02
-5.1691034e-02
-5.9562541e-02
-6.7227147e-02
-7.4691801e-02
-8.1932800e-02
-8.8927930e-02
-9.5577256e-02
-1.0194276e-01
-1.0800185e-01
-1.1375071e-01
-1.1907208e-01
-1.2400349e-01
-1.2857000e-01
-1.3275036e-01
-1.3650789e-01
-1.3975633e-01
-1.4259119e-01
-1.4499244e-01
-1.4697074e-01
-1.4839772e-01
-1.4934800e-01
-1.4985376e-01
-1.4991827e-01
-1.4948716e-01
-1.4850598e-01
-1.4709087e-01
-1.4523332e-01
-1.4294711e-01
-1.4010800e-01
-1.3683674e-01
-1.3315987e-01
-1.2909307e-01
-1.2457404e-01
-1.1961463e-01
-1.1431446e-01
-1.0866370e-01
-1.0268000e-01
-9.6303308e-02
-8.9642644e-02
-8.2710474e-02
-7.5534640e-02
-6.8087309e-02
-6.0407911e-02
-5.2555529e-02
-4.4543000e-02
-3.6389150e-02
-2.8095362e-02
-1.9725017e-02
-1.1294922e-02
-2.8269000e-03
 5.6525040e-03
 1.4110091e-02
 2.2522800e-02
 3.0870377e-02
 3.9124417e-02
 4.7229659e-02
 5.5192228e-02
 6.2986280e-02
 7.0603362e-02
 7.7951911e-02
 8.5050400e-02
 9.1893092e-02
 9.8465402e-02
 1.0471696e-01
 1.1058398e-01
 1.1612126e-01
 1.2130353e-01
 1.2614090e-01
 1.3049000e-01
 1.3443063e-01
 1.3797128e-01
 1.4111160e-01
 1.4376367e-01
 1.4590010e-01
 1.4761214e-01
 1.4888111e-01
 1.4970000e-01
 1.4994316e-01
 1.4973566e-01
 1.4907885e-01
 1.4798494e-01
 1.4636261e-01
 1.4423990e-01
 1.4169385e-01
 1.3872000e-01
 1.3531511e-01
 1.3139799e-01
 1.2709118e-01
 1.2239682e-01
 1.1735150e-01
 1.1187127e-01
 1.0601727e-01
 9.9853600e-02
 9.3393783e-02
 8.6633282e-02
 7.9543182e-02
 7.2228003e-02
 6.4692545e-02
 5.6965081e-02
 4.9020065e-02
 4.0923000e-02
 3.2706243e-02
 2.4390354e-02
 1.5990761e-02
 7.5326427e-03
-9.4196213e-04
-9.4141540e-03
-1.7864538e-02
-2.6245600e-02
-3.4541703e-02
-4.2732772e-02
-5.0802711e-02
-5.8699421e-02
-6.6384670e-02
-7.3873345e-02
-8.1138786e-02
-8.8168000e-02
-9.4852631e-02
-1.0125014e-01
-1.0734413e-01
-1.1312925e-01
-1.1850357e-01
-1.2347237e-01
-1.2808193e-01
-1.3230400e-01
-1.3611752e-01
-1.3941569e-01
-1.4229745e-01
-1.4474671e-01
-1.4677482e-01
-1.4826606e-01
-1.4926378e-01
-1.4982000e-01
-1.4993182e-01
-1.4956579e-01
-1.4863617e-01
-1.4727015e-01
-1.4546063e-01
-1.4322647e-01
-1.4044769e-01
-1.3722000e-01
-1.3358839e-01
-1.2956371e-01
-1.2510246e-01
-1.2018164e-01
-1.1492113e-01
-1.0930766e-01
-1.0336439e-01
-9.7027200e-02
-9.0396245e-02
-8.3493548e-02
-7.6343532e-02
-6.8929158e-02
-6.1269486e-02
-5.3436469e-02
-4.5440181e-02
-3.7303000e-02
-2.9021188e-02
-2.0658422e-02
-1.2233811e-02
-3.7689760e-03
 4.7108600e-03
 1.3172208e-02
 2.1591030e-02
 2.9946200e-02
 3.8214745e-02
 4.6335750e-02
 5.4315381e-02
 6.2128929e-02
 6.9767937e-02
 7.7149222e-02
 8.4273549e-02
 9.1146400e-02
 9.7747989e-02
 1.0404329e-01
 1.0994778e-01
 1.1552341e-01
 1.2074457e-01
 1.2562490e-01
 1.3002922e-01
 1.3401200e-01
 1.3759816e-01
 1.4078238e-01
 1.4349851e-01
 1.4568292e-01
 1.4744391e-01
 1.4876119e-01
 1.4963688e-01
 1.4994000e-01
 1.4978064e-01
 1.4917404e-01
 1.4812860e-01
 1.4657196e-01
 1.4449589e-01
 1.4199834e-01
 1.3907022e-01
 1.3572000e-01
 1.3185321e-01
 1.2758899e-01
 1.2293678e-01
 1.1793017e-01
 1.1250263e-01
 1.0668263e-01
 1.0055375e-01
 9.4124800e-02
 8.7403038e-02
 8.0342265e-02
 7.3052067e-02
 6.5539781e-02
 5.7833648e-02
 4.9912312e-02
 4.1828660e-02
 3.3624600e-02
 2.5318471e-02
 1.6928088e-02
 8.4734937e-03
-7.0689982e-17
-8.4734937e-03
-1.6928088e-02
-2.5318471e-02
-3.3624600e-02
-4.1828660e-02
-4.9912312e-02
-5.7833648e-02
-6.5539781e-02
-7.3052067e-02
-8.0342265e-02
-8.7403038e-02
-9.4124800e-02
-1.0055375e-01
-1.0668263e-01
-1.1250263e-01
-1.1793017e-01
-1.2293678e-01
-1.2758899e-01
-1.3185321e-01
-1.3572000e-01
-1.3907022e-01
-1.4199834e-01
-1.4449589e-01
-1.4657196e-01
-1.4812860e-01
-1.4917404e-01
-1.4978064e-01
-1.4994000e-01
-1.4963688e-01
-1.4876119e-01
-1.4744391e-01
-1.4568292e-01
-1.4349851e-01
-1.4078238e-01
-1.3759816e-01
-1.3401200e-01
-1.3002922e-01
-1.2562490e-01
-1.2074457e-01
-1.1552341e-01
-1.0994778e-01
-1.0404329e-01
-9.7747989e-02
-9.1146400e-02
-8.4273549e-02
-7.7149222e-02
-6.9767937e-02
-6.2128929e-02
-5.4315381e-02
-4.6335750e-02
-3.8214745e-02
-2.9946200e-02
-2.1591030e-02
-1.3172208e-02
-4.7108600e-03
 3.7689760e-03
 1.2233811e-02
 2.0658422e-02
 2.9021188e-02
 3.7303000e-02
 4.5440181e-02
 5.3436469e-02
 6.1269486e-02
 6.8929158e-02
 7.6343532e-02
 8.3493548e-02
 9.0396245e-02
 9.7027200e-02
 1.0336439e-01
 1.0930766e-01
 1.1492113e-01
 1.2018164e-01
 1.2510246e-01
 1.2956371e-01
 1.3358839e-01
 1.3722000e-01
 1.4044769e-01
 1.4322647e-01
 1.4546063e-01
 1.4727015e-01
 1.4863617e-01
 1.4956579e-01
 1.4993182e-01
 1.4982000e-01
 1.4926378e-01
 1.4826606e-01
 1.4677482e-01
 1.4474671e-01
 1.4229745e-01
 1.3941569e-01
 1.3611752e-01
 1.3230400e-01
 1.2808193e-01
 1.2347237e-01
 1.1850357e-01
 1.1312925e-01
 1.0734413e-01
 1.0125014e-01
 9.4852631e-02
 8.8168000e-02
 8.1138786e-02
 7.3873345e-02
 6.6384670e-02
 5.8699421e-02
 5.0802711e-02
 4.2732772e-02
 3.4541703e-02
 2.6245600e-02
 1.7864538e-02
 9.4141540e-03
 9.4196213e-04
-7.5326427e-03
-1.5990761e-02
-2.4390354e-02
-3.2706243e-02
-4.0923000e-02
-4.9020065e-02
-5.6965081e-02
-6.4692545e-02
-7.2228003e-02
-7.9543182e-02
-8.6633282e-02
-9.3393783e-02
-9.9853600e-02
-1.0601727e-01
-1.1187127e-01
-1.1735150e-01
-1.2239682e-01
-1.2709118e-01
-1.3139799e-01
-1.3531511e-01
-1.3872000e-01
-1.4169385e-01
-1.4423990e-01
-1.4636261e-01
-1.4798494e-01
-1.4907885e-01
-1.4973566e-01
-1.4994316e-01
-1.4970000e-01
-1.4888111e-01
-1.4761214e-01
-1.4590010e-01
-1.4376367e-01
-1.4111160e-01
-1.3797128e-01
-1.3443063e-01
-1.3049000e-01
-1.2614090e-01
-1.2130353e-01
-1.1612126e-01
-1.1058398e-01
-1.0471696e-01
-9.8465402e-02
-9.1893092e-02
-8.5050400e-02
-7.7951911e-02
-7.0603362e-02
-6.2986280e-02
-5.5192228e-02
-4.7229659e-02
-3.9124417e-02
-3.0870377e-02
-2.2522800e-02
-1.4110091e-02
-5.6525040e-03
 2.8269000e-03
 1.1294922e-02
 1.9725017e-02
 2.8095362e-02
 3.6389150e-02
 4.4543000e-02
 5.2555529e-02
 6.0407911e-02
 6.8087309e-02
 7.5534640e-02
 8.2710474e-02
 8.9642644e-02
 9.6303308e-02
 1.0268000e-01
 1.0866370e-01
 1.1431446e-01
 1.1961463e-01
 1.2457404e-01
 1.2909307e-01
 1.3315987e-01
 1.3683674e-01
 1.4010800e-01
 1.4294711e-01
 1.4523332e-01
 1.4709087e-01
 1.4850598e-01
 1.4948716e-01
 1.4991827e-01
 1.4985376e-01
 1.4934800e-01
 1.4839772e-01
 1.4697074e-01
 1.4499244e-01
 1.4259119e-01
 1.3975633e-01
 1.3650789e-01
 1.3275036e-01
 1.2857000e-01
 1.2400349e-01
 1.1907208e-01
 1.1375071e-01
 1.0800185e-01
 1.0194276e-01
 9.5577256e-02
 8.8927930e-02
 8.1932800e-02
 7.4691801e-02
 6.7227147e-02
 5.9562541e-02
 5.1691034e-02
 4.3635359e-02
 3.5457512e-02
 2.7171748e-02
 1.8800000e-02
 1.0354618e-02
 1.8838834e-03
-6.5916063e-03
-1.5052669e-02
-2.3461233e-02
-3.1786668e-02
-4.0015780e-02
-4.8126200e-02
-5.6093579e-02
-6.3843026e-02
-7.1401189e-02
-7.8741480e-02
-8.5859066e-02
-9.2659385e-02
-9.9149743e-02
-1.0534800e-01
-1.1123559e-01
-1.1676718e-01
-1.2185264e-01
-1.2658854e-01
-1.3093828e-01
-1.3490312e-01
-1.3836504e-01
-1.4138400e-01
-1.4397863e-01
-1.4614720e-01
-1.4783466e-01
-1.4897830e-01
-1.4968508e-01
-1.4994130e-01
-1.4975486e-01
-1.4899600e-01
-1.4777484e-01
-1.4611207e-01
-1.4402236e-01
-1.4143492e-01
-1.3833943e-01
-1.3484425e-01
-1.3094634e-01
-1.2665000e-01
-1.2185864e-01
-1.1671466e-01
-1.1121619e-01
-1.0538567e-01
-9.9179100e-02
-9.2636363e-02
-8.5824029e-02
-7.8751800e-02
-7.1435145e-02
-6.3841573e-02
-5.6067023e-02
-4.8121621e-02
-4.0033045e-02
-3.1790369e-02
-2.3461478e-02
-1.5047440e-02
-7.4924023e-03
-3.6932654e-03
-5.9825313e-03
-7.4822579e-03
-8.9845109e-03
-1.0326544e-02
-1.1648487e-02
-1.2950600e-02
-1.4308927e-02
-1.5766365e-02
-1.7407407e-02
-1.9337300e-02
-2.1540688e-02
-2.4191440e-02
-2.7290287e-02
-3.0914400e-02
-3.5237682e-02
-4.0336658e-02
-4.6353235e-02
-5.3601680e-02
-6.2080186e-02
-7.1573602e-02
-8.2089203e-02
-9.3478000e-02
-1.0558585e-01
-1.1808659e-01
-1.3070182e-01
-1.4312245e-01
-1.5488692e-01
-1.6546959e-01
-1.7441570e-01
-1.8119800e-01
-1.8521927e-01
-1.8468620e-01
-1.7996412e-01
-1.7054109e-01
-1.5621581e-01
-1.3490891e-01
-1.0713349e-01
-7.3084800e-02
-3.2408932e-02
 1.5346699e-02
 7.1955271e-02
 1.3542050e-01
 2.0593230e-01
 2.8284081e-01
 3.6634078e-01
 4.5371800e-01
 5.4333778e-01
 6.3395889e-01
 7.2404074e-01
 8.1121727e-01
 8.9370825e-01
 9.6954081e-01
 1.0375196e+00
 1.0914200e+00
 1.1312751e+00
 1.1560632e+00
 1.1658262e+00
 1.1580159e+00
 1.1325015e+00
 1.0935374e+00
 1.0411761e+00
 9.7672000e-01
 8.9886190e-01
 8.1272670e-01
 7.2009645e-01
 6.2287099e-01
 5.2360393e-01
 4.2560371e-01
 3.3023752e-01
 2.3849000e-01
 1.5173753e-01
 7.2418221e-02
-3.6351562e-04
-6.5768467e-02
-1.2385860e-01
-1.7223636e-01
-2.1187966e-01
-2.4386800e-01
-2.6840325e-01
-2.8547565e-01
-2.9415844e-01
-2.9708004e-01
-2.9452468e-01
-2.8752566e-01
-2.7574562e-01
-2.6098400e-01
-2.4391784e-01
-2.2502362e-01
-2.0491130e-01
-1.8426546e-01
-1.6371119e-01
-1.4373625e-01
-1.2450544e-01
-1.0722200e-01
-9.1722224e-02
-7.7778083e-02
-6.5318992e-02
-5.4610825e-02
-4.5535325e-02
-3.7656196e-02
-3.0941460e-02
-2.5195000e-02
-2.0715039e-02
-1.7032866e-02
-1.3941558e-02
-1.1386129e-02
-9.3341940e-03
-7.5717423e-03
-5.9667082e-03
-4.4673600e-03
-3.0603851e-03
-1.7211410e-03
-5.6717719e-04
 2.9993961e-04
 6.2723619e-03
 1.5108682e-02
 2.3447365e-02
 3.1785400e-02
 4.0024257e-02
 4.8140144e-02
 5.6071811e-02
 6.3836052e-02
 7.1405545e-02
 7.8773681e-02
 8.5842159e-02
 9.2635600e-02
 9.9149298e-02
 1.0537487e-01
 1.1125847e-01
 1.1672070e-01
 1.2184381e-01
 1.2660021e-01
 1.3099252e-01
 1.3486600e-01
 1.3833582e-01
 1.4138595e-01
 1.4402249e-01
 1.4616238e-01
 1.4777974e-01
 1.4897065e-01
 1.4970384e-01
 1.5000000e-01
 1.4970384e-01
 1.4897065e-01
 1.4777974e-01
 1.4616238e-01
 1.4402249e-01
 1.4138595e-01
 1.3833582e-01
 1.3486600e-01
 1.3099252e-01
 1.2660021e-01
 1.2184381e-01
 1.1672070e-01
 1.1125847e-01
 1.0537487e-01
 9.9149298e-02
 9.2635600e-02
 8.5842159e-02
 7.8773681e-02
 7.1405543e-02
 6.3836063e-02
 5.6071768e-02
 4.8140288e-02
 4.0023909e-02
 3.1785400e-02
 2.3454527e-02
 1.5051197e-02
 6.5949479e-03
-1.8848575e-03
-1.0353956e-02
-1.8791911e-02
-2.7180562e-02
-3.5463800e-02
-4.3634871e-02
-5.1672583e-02
-5.9562517e-02
-6.7249687e-02
-7.4694853e-02
-8.1919617e-02
-8.8896554e-02
-9.5614000e-02
-1.0195593e-01
-1.0799725e-01
-1.1370671e-01
-1.1908418e-01
-1.2404015e-01
-1.2857266e-01
-1.3272239e-01
-1.3647000e-01
-1.3981318e-01
-1.4260522e-01
-1.4498195e-01
-1.4691291e-01
-1.4842771e-01
-1.4938619e-01
-1.4985399e-01
-1.4988000e-01
-1.4945761e-01
-1.4856654e-01
-1.4710076e-01
-1.4521877e-01
-1.4288990e-01
-1.4014844e-01
-1.3686462e-01
-1.3315800e-01
-1.2905377e-01
-1.2456141e-01
-1.1965955e-01
-1.1432000e-01
-1.0864863e-01
-1.0264181e-01
-9.6337113e-02
-8.9657200e-02
-8.2707193e-02
-7.5509236e-02
-6.8087339e-02
-6.0429309e-02
-5.2556367e-02
-4.4535086e-02
-3.6377280e-02
-2.8107000e-02
-1.9726909e-02
-1.1293479e-02
-2.8266801e-03
 5.6530039e-03
 1.4113955e-02
 2.2523972e-02
 3.0864140e-02
 3.9113000e-02
 4.7247952e-02
 5.5198356e-02
 6.2982555e-02
 7.0574381e-02
 7.7967272e-02
 8.5072049e-02
 9.1893761e-02
 9.8440400e-02
 1.0469615e-01
 1.1062829e-01
 1.1612992e-01
 1.2129254e-01
 1.2608926e-01
 1.3052758e-01
 1.3445819e-01
 1.3797000e-01
 1.4106864e-01
 1.4374891e-01
 1.4595545e-01
 1.4761961e-01
 1.4886129e-01
 1.4964307e-01
 1.4999558e-01
 1.4976000e-01
 1.4907422e-01
 1.4793463e-01
 1.4636277e-01
 1.4429011e-01
 1.4169809e-01
 1.3869629e-01
 1.3526971e-01
 1.3145000e-01
 1.2710709e-01
 1.2239050e-01
 1.1730740e-01
 1.1188314e-01
 1.0604971e-01
 9.9854508e-02
 9.3373911e-02
 8.6609200e-02
 7.9576028e-02
 7.2234367e-02
 6.4687138e-02
 5.6943192e-02
 4.9030123e-02
 4.0933547e-02
 3.2705438e-02
 2.4384200e-02
 1.5987791e-02
 7.5365818e-03
-9.4289272e-04
-9.4140340e-03
-1.7856404e-02
-2.6252621e-02
-3.4549067e-02
-4.2733000e-02
-5.0786939e-02
-5.8693295e-02
-6.6409000e-02
-7.3877766e-02
-8.1128907e-02
-8.8133169e-02
-9.4885326e-02
-1.0126680e-01
-1.0734170e-01
-1.1308934e-01
-1.1850354e-01
-1.2351377e-01
-1.2808678e-01
-1.3228163e-01
-1.3607135e-01
-1.3947000e-01
-1.4231587e-01
-1.4473954e-01
-1.4672007e-01
-1.4828159e-01
-1.4930918e-01
-1.4982237e-01
-1.4990025e-01
-1.4952400e-01
-1.4869750e-01
-1.4728379e-01
-1.4545000e-01
-1.4316975e-01
-1.4047629e-01
-1.3725476e-01
-1.3358846e-01
-1.2953000e-01
-1.2507791e-01
-1.2022925e-01
-1.1492929e-01
-1.0929581e-01
-1.0332433e-01
-9.7054869e-02
-9.0415099e-02
-8.3491600e-02
-7.6320842e-02
-6.8922126e-02
-6.1293413e-02
-5.3438326e-02
-4.5433604e-02
-3.7289475e-02
-2.9031824e-02
-2.0661400e-02
-1.2232560e-02
-3.7683470e-03
 4.7108294e-03
 1.3176082e-02
 2.1592563e-02
 2.9941689e-02
 3.8200990e-02
 4.6353000e-02
 5.4323013e-02
 6.2126651e-02
 6.9740835e-02
 7.7157112e-02
 8.4298639e-02
 9.1148473e-02
 9.7727734e-02
 1.0401400e-01
 1.0999226e-01
 1.1553515e-01
 1.2073669e-01
 1.2557415e-01
 1.3005570e-01
 1.3404589e-01
 1.3759888e-01
 1.4074600e-01
 1.4346989e-01
 1.4574143e-01
 1.4745441e-01
 1.4874616e-01
 1.4957750e-01
 1.4998271e-01
 1.4981158e-01
 1.4917200e-01
 1.4808410e-01
 1.4655715e-01
 1.4455121e-01
 1.4200519e-01
 1.3905140e-01
 1.3566927e-01
 1.3189967e-01
 1.2761000e-01
 1.2293257e-01
 1.1788991e-01
 1.1250267e-01
 1.0672022e-01
 1.0055613e-01
 9.4108654e-02
 8.7373350e-02
 8.0374000e-02
 7.3060904e-02
 6.5535743e-02
 5.7812566e-02
 4.9917571e-02
 4.1841706e-02
 3.3624266e-02
 2.5312960e-02
 1.6923720e-02
 8.4778257e-03
-7.9923353e-07
-8.4737524e-03
-1.6920386e-02
-2.5323320e-02
-3.3633045e-02
-4.1829513e-02
-4.9899400e-02
-5.7821903e-02
-6.5565105e-02
-7.3058045e-02
-8.0335099e-02
-8.7366977e-02
-9.4151352e-02
-1.0057448e-01
-1.0668200e-01
-1.1246779e-01
-1.1791803e-01
-1.2298191e-01
-1.2759625e-01
-1.3183573e-01
-1.3566863e-01
-1.3911857e-01
-1.4202200e-01
-1.4449156e-01
-1.4652208e-01
-1.4812877e-01
-1.4922600e-01
-1.4978529e-01
-1.4991471e-01
-1.4958582e-01
-1.4882000e-01
-1.4746215e-01
-1.4567562e-01
-1.4344464e-01
-1.4079722e-01
-1.3763986e-01
-1.3401390e-01
-1.3000124e-01
-1.2559000e-01
-1.2079286e-01
-1.1553467e-01
-1.0993877e-01
-1.0400335e-01
-9.7767587e-02
-9.1169948e-02
-8.4272819e-02
-7.7129600e-02
-6.9754222e-02
-6.2154569e-02
-5.4318493e-02
-4.6330389e-02
-3.8200337e-02
-2.9955054e-02
-2.1595363e-02
-1.3171160e-02
-4.7098448e-03
 3.7685042e-03
 1.2237593e-02
 2.0660329e-02
 2.9018086e-02
 3.7287897e-02
 4.5455370e-02
 5.3445800e-02
 6.1268387e-02
 6.8904855e-02
 7.6343512e-02
 8.3521697e-02
 9.0399823e-02
 9.7011308e-02
 1.0332879e-01
 1.0935000e-01
 1.1493647e-01
 1.2017631e-01
 1.2505476e-01
 1.2957738e-01
 1.3362861e-01
 1.3722261e-01
 1.4041793e-01
 1.4318600e-01
 1.4551979e-01
 1.4728429e-01
 1.4862526e-01
 1.4950698e-01
 1.4996196e-01
 1.4985814e-01
 1.4926402e-01
 1.4822800e-01
 1.4674604e-01
 1.4480526e-01
 1.4230739e-01
 1.3940114e-01
 1.3606451e-01
 1.3234187e-01
 1.2810893e-01
 1.2347000e-01
 1.1846814e-01
 1.1311742e-01
 1.0738596e-01
 1.0125427e-01
 9.4839797e-02
 8.8134575e-02
 8.1167376e-02
 7.3885200e-02
 6.6381843e-02
 5.8679832e-02
 5.0802747e-02
 4.2748176e-02
 3.4541905e-02
 2.6240768e-02
 1.7858966e-02
 9.4186000e-03
 9.4140949e-04
-7.5331523e-03
-1.5983855e-02
-2.4392800e-02
-3.2715684e-02
-4.0924455e-02
-4.9009944e-02
-5.6948600e-02
-6.4717829e-02
-7.2235763e-02
-7.9538229e-02
-8.6597913e-02
-9.3412451e-02
-9.9878712e-02
-1.0601820e-01
-1.1184200e-01
-1.1732805e-01
-1.2244424e-01
-1.2710119e-01
-1.3138472e-01
-1.3526169e-01
-1.3875927e-01
-1.4172364e-01
-1.4423800e-01
-1.4631877e-01
-1.4796984e-01
-1.4913606e-01
-1.4974293e-01
-1.4992339e-01
-1.4964303e-01
-1.4893364e-01
-1.4763600e-01
-1.4589562e-01
-1.4371440e-01
-1.4111176e-01
-1.3801936e-01
-1.3443448e-01
-1.3046745e-01
-1.2609795e-01
-1.2135000e-01
-1.1613621e-01
-1.1057747e-01
-1.0467875e-01
-9.8475587e-02
-9.1921374e-02
-8.5050900e-02
-7.7935444e-02
-7.0583800e-02
-6.3012517e-02
-5.5196905e-02
-4.7225399e-02
-3.9109820e-02
-3.0876739e-02
-2.2528679e-02
-1.4109245e-02
-5.6511600e-03
 2.8261078e-03
 1.1298505e-02
 1.9727299e-02
 2.8093371e-02
 3.6373699e-02
 4.4555217e-02
 5.2566747e-02
 6.0407800e-02
 6.8066393e-02
 7.5526786e-02
 8.2740994e-02
 8.9647898e-02
 9.6291156e-02
 1.0264049e-01
 1.0870130e-01
 1.1433400e-01
 1.1961140e-01
 1.2453101e-01
 1.2909314e-01
 1.3320584e-01
 1.3684134e-01
 1.4008442e-01
 1.4289765e-01
 1.4529000e-01
 1.4710943e-01
 1.4849860e-01
 1.4943134e-01
 1.4993390e-01
 1.4989911e-01
 1.4935041e-01
 1.4836618e-01
 1.4693000e-01
 1.4505170e-01
 1.4260483e-01
 1.3974548e-01
 1.3645525e-01
 1.3277710e-01
 1.2860348e-01
 1.2400279e-01
 1.1904200e-01
 1.1372774e-01
 1.0804647e-01
 1.0194902e-01
 9.5567309e-02
 8.8892787e-02
 8.1956297e-02
 7.4707245e-02
 6.7225400e-02
 5.9544930e-02
 5.1685768e-02
 4.3652749e-02
 3.5458376e-02
 2.7167585e-02
 1.8793502e-02
 1.0358836e-02
 1.8837200e-03
-6.5922746e-03
-1.5046809e-02
-2.3461206e-02
-3.1796933e-02
-4.0017875e-02
-4.8118597e-02
-5.6073596e-02
-6.3867000e-02
-7.1410990e-02
-7.8738332e-02
-8.5825909e-02
-9.2669000e-02
-9.9179189e-02
-1.0535041e-01
-1.1121189e-01
-1.1673400e-01
-1.2190038e-01
-1.2660172e-01
-1.3092862e-01
-1.3485036e-01
-1.3839268e-01
-1.4142039e-01
-1.4397891e-01
-1.4611000e-01
-1.4780538e-01
-1.4903880e-01
-1.4969545e-01
-1.4992629e-01
-1.4969545e-01
-1.4903880e-01
-1.4780538e-01
-1.4611000e-01
-1.4397891e-01
-1.4142039e-01
-1.3839268e-01
-1.3485036e-01
-1.3092862e-01
-1.2660172e-01
-1.2190038e-01
-1.1673400e-01
-1.1121189e-01
-1.0535041e-01
-9.9179189e-02
-9.2669000e-02
-8.5825909e-02
-7.8738332e-02
-7.1410990e-02
-6.3867000e-02
-5.6073596e-02
-4.8118597e-02
-4.0017875e-02
-3.1796933e-02
-2.3461206e-02
-1.5046809e-02
-6.5922746e-03
 1.8837200e-03
 1.0358836e-02
 1.8793502e-02
 2.7167585e-02
 3.5458376e-02
 4.3652749e-02
 5.1685768e-02
 5.9544930e-02
 6.7225400e-02
 7.4707245e-02
 8.1956297e-02
 8.8892787e-02
 9.5567309e-02
 1.0194902e-01
 1.0804647e-01
 1.1372774e-01
 1.1904200e-01
 1.2400279e-01
 1.2860348e-01
 1.3277710e-01
 1.3645525e-01
 1.3974548e-01
 1.4260483e-01
 1.4505170e-01
 1.4693000e-01
 1.4836618e-01
 1.4935041e-01
 1.4989911e-01
 1.4993390e-01
 1.4943134e-01
 1.4849860e-01
 1.4710943e-01
 1.4529000e-01
 1.4289765e-01
 1.4008442e-01
 1.3684134e-01
 1.3320584e-01
 1.2909314e-01
 1.2453101e-01
 1.1961140e-01
 1.1433400e-01
 1.0870130e-01
 1.0264049e-01
 9.6291156e-02
 8.9647898e-02
 8.2740994e-02
 7.5526786e-02
 6.8066393e-02
 6.0407800e-02
 5.2566747e-02
 4.4555217e-02
 3.6373699e-02
 2.8093371e-02
 1.9727299e-02
 1.1298505e-02
 2.8261078e-03
-5.6511600e-03
-1.4109245e-02
-2.2528679e-02
-3.0876739e-02
-3.9109820e-02
-4.7225399e-02
-5.5196905e-02
-6.3012517e-02
-7.0583800e-02
-7.7935444e-02
-8.5050900e-02
-9.1921374e-02
-9.8475587e-02
-1.0467875e-01
-1.1057747e-01
-1.1613621e-01
-1.2135000e-01
-1.2609795e-01
-1.3046745e-01
-1.3443448e-01
-1.3801936e-01
-1.4111176e-01
-1.4371440e-01
-1.4589562e-01
-1.4763600e-01
-1.4893364e-01
-1.4964303e-01
-1.4992339e-01
-1.4974293e-01
-1.4913606e-01
-1.4796984e-01
-1.4631877e-01
-1.4423800e-01
-1.4172364e-01
-1.3875927e-01
-1.3526169e-01
-1.3138472e-01
-1.2710119e-01
-1.2244424e-01
-1.1732805e-01
-1.1184200e-01
-1.0601820e-01
-9.9878712e-02
-9.3412451e-02
-8.6597913e-02
-7.9538229e-02
-7.2235763e-02
-6.4717829e-02
-5.6948600e-02
-4.9009944e-02
-4.0924455e-02
-3.2715684e-02
-2.4392800e-02
-1.5983855e-02
-7.5331523e-03
 9.4140949e-04
 9.4186000e-03
 1.7858966e-02
 2.6240768e-02
 3.4541905e-02
 4.2748176e-02
 5.0802747e-02
 5.8679832e-02
 6.6381843e-02
 7.3885200e-02
 8.1167376e-02
 8.8134575e-02
 9.4839797e-02
 1.0125427e-01
 1.0738596e-01
 1.1311742e-01
 1.1846814e-01
 1.2347000e-01
 1.2810893e-01
 1.3234187e-01
 1.3606451e-01
 1.3940114e-01
 1.4230739e-01
 1.4480526e-01
 1.4674604e-01
 1.4822800e-01
 1.4926402e-01
 1.4985814e-01
 1.4996196e-01
 1.4950698e-01
 1.4862526e-01
 1.4728429e-01
 1.4551979e-01
 1.4318600e-01
 1.4041793e-01
 1.3722261e-01
 1.3362861e-01
 1.2957738e-01
 1.2505476e-01
 1.2017631e-01
 1.1493647e-01
 1.0935000e-01
 1.0332879e-01
 9.7011308e-02
 9.0399823e-02
 8.3521697e-02
 7.6343512e-02
 6.8904855e-02
 6.1268387e-02
 5.3445800e-02
 4.5455370e-02
 3.7287897e-02
 2.9018086e-02
 2.0660329e-02
 1.2237593e-02
 3.7685042e-03
-4.7098448e-03
-1.3171160e-02
-2.1595363e-02
-2.9955054e-02
-3.8200337e-02
-4.6330389e-02
-5.4318493e-02
-6.2154569e-02
-6.9754222e-02
-7.7129600e-02
-8.4272819e-02
-9.1169948e-02
-9.7767587e-02
-1.0400335e-01
-1.0993877e-01
-1.1553467e-01
-1.2079286e-01
-1.2559000e-01
-1.3000124e-01
-1.3401390e-01
-1.3763986e-01
-1.4079722e-01
-1.4344464e-01
-1.4567562e-01
-1.4746215e-01
-1.4882000e-01
-1.4958582e-01
-1.4991471e-01
-1.4978529e-01
-1.4922600e-01
-1.4812877e-01
-1.4652208e-01
-1.4449156e-01
-1.4202200e-01
-1.3911857e-01
-1.3566863e-01
-1.3183573e-01
-1.2759625e-01
-1.2298191e-01
-1.1791803e-01
-1.1246779e-01
-1.0668200e-01
-1.0057448e-01
-9.4151352e-02
-8.7366977e-02
-8.0335100e-02
-7.3058043e-02
-6.5565113e-02
-5.7821885e-02
-4.9899400e-02
-4.1829896e-02
-3.3629970e-02
-2.5340575e-02
-1.6840109e-02
-9.1596580e-03
-4.4149562e-03
-5.3935328e-03
-7.1775600e-03
-8.6643804e-03
-1.0027820e-02
-1.1357617e-02
-1.2659097e-02
-1.3994837e-02
-1.5443288e-02
-1.7038397e-02
-1.8870000e-02
-2.0988858e-02
-2.3573523e-02
-2.6612903e-02
-3.0033201e-02
-3.4139521e-02
-3.9116945e-02
-4.5005638e-02
-5.1960200e-02
-5.9976148e-02
-6.9335084e-02
-7.9703486e-02
-9.0948666e-02
-1.0281738e-01
-1.1526675e-01
-1.2791838e-01
-1.4035200e-01
-1.5229971e-01
-1.6341296e-01
-1.7266815e-01
-1.7981659e-01
-1.8421837e-01
-1.8553922e-01
-1.8171627e-01
-1.7305800e-01
-1.5930370e-01
-1.4011308e-01
-1.1455618e-01
-8.1364389e-02
-4.1684188e-02
 4.8021743e-03
 5.7970253e-02
 1.2029980e-01
 1.8978930e-01
 2.6578698e-01
 3.4730822e-01
 4.3372186e-01
 5.2333631e-01
 6.1379363e-01
 7.0394833e-01
 7.9262000e-01
 8.7620473e-01
 9.5325900e-01
 1.0219923e+00
 1.0811653e+00
 1.1251269e+00
 1.1520050e+00
 1.1637983e+00
 1.1602200e+00
 1.1412195e+00
 1.1038260e+00
 1.0535176e+00
 9.9086612e-01
 9.1765871e-01
 8.3310424e-01
 7.4105349e-01
 6.4460600e-01
 5.4570542e-01
 4.4691605e-01
 3.5103402e-01
 2.5866225e-01
 1.7116483e-01
 8.8899382e-02
 1.4690895e-02
-5.1860240e-02
-1.1083308e-01
-1.6212988e-01
-2.0470054e-01
-2.3754852e-01
-2.6321134e-01
-2.8164859e-01
-2.9347869e-01
-2.9722800e-01
-2.9543804e-01
-2.8903171e-01
-2.7872123e-01
-2.6475440e-01
-2.4789108e-01
-2.2927127e-01
-2.0940309e-01
-1.8890000e-01
-1.6820629e-01
-1.4811315e-01
-1.2885320e-01
-1.1082282e-01
-9.4863713e-02
-8.0738404e-02
-6.8069363e-02
-5.6944000e-02
-4.7277764e-02
-3.9265352e-02
-3.2372672e-02
-2.6497181e-02
-2.1562518e-02
-1.7740883e-02
-1.4584821e-02
-1.1944000e-02
-9.7734563e-03
-7.9179149e-03
-6.3130223e-03
-4.7979514e-03
-3.3631524e-03
-2.0523127e-03
-6.6237609e-04
-1.1939200e-04
 4.5756419e-03
 1.3229722e-02
 2.1583528e-02
 2.9948096e-02
 3.8195908e-02
 4.6334349e-02
 5.4341245e-02
 6.2137400e-02
 6.9739453e-02
 7.7130005e-02
 8.4298594e-02
 9.1179444e-02
 9.7731169e-02
 1.0399760e-01
 1.0995285e-01
 1.1558000e-01
 1.2075210e-01
 1.2556882e-01
 1.3000512e-01
 1.3405940e-01
 1.3763971e-01
 1.4074837e-01
 1.4343994e-01
 1.4570000e-01
 1.4751260e-01
 1.4876141e-01
 1.4956707e-01
 1.4992219e-01
 1.4984110e-01
 1.4921034e-01
 1.4808363e-01
 1.4652000e-01
 1.4452210e-01
 1.4206200e-01
 1.3906107e-01
 1.3565642e-01
 1.3184562e-01
 1.2764672e-01
 1.2295763e-01
 1.1788800e-01
 1.1246828e-01
 1.0670921e-01
 1.0059399e-01
 9.4112857e-02
 8.7361473e-02
 8.0343615e-02
 7.3086724e-02
 6.5546200e-02
 5.7809995e-02
 4.9900939e-02
 4.1841725e-02
 3.3636402e-02
 2.5312907e-02
 1.6920421e-02
 8.4755204e-03
 2.1102911e-15
-8.4755204e-03
-1.6920421e-02
-2.5312907e-02
-3.3636402e-02
-4.1841725e-02
-4.9900939e-02
-5.7809995e-02
-6.5546200e-02
-7.3086724e-02
-8.0343615e-02
-8.7361473e-02
-9.4112857e-02
-1.0059399e-01
-1.0670921e-01
-1.1246828e-01
-1.1788800e-01
-1.2295763e-01
-1.2764672e-01
-1.3184562e-01
-1.3565642e-01
-1.3906107e-01
-1.4206200e-01
-1.4452210e-01
-1.4652000e-01
-1.4808363e-01
-1.4921034e-01
-1.4984110e-01
-1.4992219e-01
-1.4956707e-01
-1.4876141e-01
-1.4751260e-01
-1.4570000e-01
-1.4343994e-01
-1.4074837e-01
-1.3763971e-01
-1.3405940e-01
-1.3000512e-01
-1.2556882e-01
-1.2075210e-01
-1.1558000e-01
-1.0995285e-01
-1.0399760e-01
-9.7731169e-02
-9.1179444e-02
-8.4298593e-02
-7.7130005e-02
-6.9739452e-02
-6.2137400e-02
-5.4341264e-02
-4.6334192e-02
-3.8196788e-02
-2.9944004e-02
-2.1599912e-02
-1.3174636e-02
-4.7089995e-03
 3.7674400e-03
 1.2234917e-02
 2.0667682e-02
 2.9020985e-02
 3.7285095e-02
 4.5436046e-02
 5.3460539e-02
 6.1281389e-02
 6.8904600e-02
 7.6320122e-02
 8.3513006e-02
 9.0433403e-02
 9.7016598e-02
 1.0331652e-01
 1.0930614e-01
 1.1497650e-01
 1.2019600e-01
 1.2505179e-01
 1.2953153e-01
 1.3362845e-01
 1.3726864e-01
 1.4042275e-01
 1.4316244e-01
 1.4546900e-01
 1.4734000e-01
 1.4864523e-01
 1.4949965e-01
 1.4990477e-01
 1.4987335e-01
 1.4930900e-01
 1.4822979e-01
 1.4671579e-01
 1.4476400e-01
 1.4236486e-01
 1.3941472e-01
 1.3605493e-01
 1.3228841e-01
 1.2813496e-01
 1.2350116e-01
 1.1846792e-01
 1.1308800e-01
 1.0736457e-01
 1.0129451e-01
 9.4846191e-02
 8.8125227e-02
 8.1135429e-02
 7.3906438e-02
 6.6395544e-02
 5.8678200e-02
 5.0787721e-02
 4.2743835e-02
 3.4555684e-02
 2.6241230e-02
 1.7855977e-02
 9.4157553e-03
 9.4236399e-04
-7.5348800e-03
-1.5984229e-02
-2.4383734e-02
-3.2715646e-02
-4.0937835e-02
-4.9012302e-02
-5.6939573e-02
-6.4694875e-02
-7.2263000e-02
-7.9549046e-02
-8.6594397e-02
-9.3376266e-02
-9.9888743e-02
-1.0604966e-01
-1.1184431e-01
-1.1730358e-01
-1.2241000e-01
-1.2715186e-01
-1.3139824e-01
-1.3525285e-01
-1.3870267e-01
-1.4175187e-01
-1.4427503e-01
-1.4631873e-01
-1.4793200e-01
-1.4910586e-01
-1.4980175e-01
-1.4993434e-01
-1.4962888e-01
-1.4887246e-01
-1.4767735e-01
-1.4592619e-01
-1.4371200e-01
-1.4106882e-01
-1.3800506e-01
-1.3448442e-01
-1.3047402e-01
-1.2608108e-01
-1.2130436e-01
-1.1617681e-01
-1.1059600e-01
-1.0467477e-01
-9.8442241e-02
-9.1921355e-02
-8.5080725e-02
-7.7937107e-02
-7.0571660e-02
-6.2991289e-02
-5.5219000e-02
-4.7230903e-02
-3.9107029e-02
-3.0865910e-02
-2.2531091e-02
-1.4113923e-02
-5.6503901e-03
 2.8257230e-03
 1.1294880e-02
 1.9734383e-02
 2.8096887e-02
 3.6371990e-02
 4.4536443e-02
 5.2577053e-02
 6.0423150e-02
 6.8067145e-02
 7.5507400e-02
 8.2724296e-02
 8.9682981e-02
 9.6298603e-02
 1.0263156e-01
 1.0865583e-01
 1.1436660e-01
 1.1963609e-01
 1.2453000e-01
 1.2905318e-01
 1.3319198e-01
 1.3689148e-01
 1.4009204e-01
 1.4287952e-01
 1.4523317e-01
 1.4715928e-01
 1.4852400e-01
 1.4942663e-01
 1.4988199e-01
 1.4989893e-01
 1.4940142e-01
 1.4837055e-01
 1.4690608e-01
 1.4500107e-01
 1.4266000e-01
 1.3976367e-01
 1.3644838e-01
 1.3272652e-01
 1.2861695e-01
 1.2404012e-01
 1.1904342e-01
 1.1370340e-01
 1.0801600e-01
 1.0198996e-01
 9.5576323e-02
 8.8885628e-02
 8.1924408e-02
 7.4722342e-02
 6.7242675e-02
 5.9544163e-02
 5.1672600e-02
 4.3644235e-02
 3.5473322e-02
 2.7168712e-02
 1.8790856e-02
 1.0355563e-02
 1.8846800e-03
-6.5938600e-03
-1.5047440e-02
-2.3453701e-02
-3.1793582e-02
-4.0032089e-02
-4.8121859e-02
-5.6066971e-02
-6.3841582e-02
-7.1435144e-02
-7.8751800e-02
-8.5824029e-02
-9.2636363e-02
-9.9179100e-02
-1.0538567e-01
-1.1121619e-01
-1.1671466e-01
-1.2185864e-01
-1.2665000e-01
-1.3094634e-01
-1.3484425e-01
-1.3833943e-01
-1.4143492e-01
-1.4402236e-01
-1.4611207e-01
-1.4777484e-01
-1.4899600e-01
-1.4975486e-01
-1.4994130e-01
-1.4968508e-01
-1.4897830e-01
-1.4783466e-01
-1.4614720e-01
-1.4397863e-01
-1.4138400e-01
-1.3836504e-01
-1.3490312e-01
-1.3093828e-01
-1.2658854e-01
-1.2185264e-01
-1.1676718e-01
-1.1123559e-01
-1.0534800e-01
-9.9149743e-02
-9.2659385e-02
-8.5859066e-02
-7.8741480e-02
-7.1401189e-02
-6.3843026e-02
-5.6093579e-02
-4.8126200e-02
-4.0015780e-02
-3.1786668e-02
-2.3461233e-02
-1.5052669e-02
-6.5916063e-03
 1.8838834e-03
 1.0354618e-02
 1.8800000e-02
 2.7171748e-02
 3.5457512e-02
 4.3635359e-02
 5.1691034e-02
 5.9562541e-02
 6.7227147e-02
 7.4691801e-02
 8.1932800e-02
 8.8927930e-02
 9.5577256e-02
 1.0194276e-01
 1.0800185e-01
 1.1375071e-01
 1.1907208e-01
 1.2400349e-01
 1.2857000e-01
 1.3275036e-01
 1.3650789e-01
 1.3975633e-01
 1.4259119e-01
 1.4499244e-01
 1.4697074e-01
 1.4839772e-01
 1.4934800e-01
 1.4985376e-01
 1.4991827e-01
 1.4948716e-01
 1.4850598e-01
 1.4709087e-01
 1.4523332e-01
 1.4294711e-01
 1.4010800e-01
 1.3683674e-01
 1.3315987e-01
 1.2909307e-01
 1.2457404e-01
 1.1961463e-01
 1.1431446e-01
 1.0866370e-01
 1.0268000e-01
 9.6303308e-02
 8.9642644e-02
 8.2710474e-02
 7.5534640e-02
 6.8087309e-02
 6.0407911e-02
 5.2555529e-02
 4.4543000e-02
 3.6389150e-02
 2.8095362e-02
 1.9725017e-02
 1.1294922e-02
 2.8269000e-03
-5.6525040e-03
-1.4110091e-02
-2.2522800e-02
-3.0870377e-02
-3.9124417e-02
-4.7229659e-02
-5.5192228e-02
-6.2986280e-02
-7.0603362e-02
-7.7951911e-02
-8.5050400e-02
-9.1893092e-02
-9.8465402e-02
-1.0471696e-01
-1.1058398e-01
-1.1612126e-01
-1.2130353e-01
-1.2614090e-01
-1.3049000e-01
-1.3443063e-01
-1.3797128e-01
-1.4111160e-01
-1.4376367e-01
-1.4590010e-01
-1.4761214e-01
-1.4888111e-01
-1.4970000e-01
-1.4994316e-01
-1.4973566e-01
-1.4907885e-01
-1.4798494e-01
-1.4636261e-01
-1.4423990e-01
-1.4169385e-01
-1.3872000e-01
-1.3531511e-01
-1.3139799e-01
-1.2709118e-01
-1.2239682e-01
-1.1735150e-01
-1.1187127e-01
-1.0601727e-01
-9.9853600e-02
-9.3393783e-02
-8.6633282e-02
-7.9543182e-02
-7.2228003e-02
-6.4692545e-02
-5.6965081e-02
-4.9020065e-02
-4.0923000e-02
-3.2706243e-02
-2.4390354e-02
-1.5990761e-02
-7.5326427e-03
 9.4196213e-04
 9.4141540e-03
 1.7864538e-02
 2.6245600e-02
 3.4541703e-02
 4.2732772e-02
 5.0802711e-02
 5.8699421e-02
 6.6384670e-02
 7.3873345e-02
 8.1138786e-02
 8.8168000e-02
 9.4852631e-02
 1.0125014e-01
 1.0734413e-01
 1.1312925e-01
 1.1850357e-01
 1.2347237e-01
 1.2808193e-01
 1.3230400e-01
 1.3611752e-01
 1.3941569e-01
 1.4229745e-01
 1.4474671e-01
 1.4677482e-01
 1.4826606e-01
 1.4926378e-01
 1.4982000e-01
 1.4993182e-01
 1.4956579e-01
 1.4863617e-01
 1.4727015e-01
 1.4546063e-01
 1.4322647e-01
 1.4044769e-01
 1.3722000e-01
 1.3358839e-01
 1.2956371e-01
 1.2510246e-01
 1.2018164e-01
 1.1492113e-01
 1.0930766e-01
 1.0336439e-01
 9.7027200e-02
 9.0396245e-02
 8.3493548e-02
 7.6343532e-02
 6.8929158e-02
 6.1269486e-02
 5.3436469e-02
 4.5440181e-02
 3.7303000e-02
 2.9021188e-02
 2.0658422e-02
 1.2233811e-02
 3.7689760e-03
-4.7108600e-03
-1.3172208e-02
-2.1591030e-02
-2.9946200e-02
-3.8214745e-02
-4.6335750e-02
-5.4315381e-02
-6.2128929e-02
-6.9767937e-02
-7.7149222e-02
-8.4273549e-02
-9.1146400e-02
-9.7747989e-02
-1.0404329e-01
-1.0994778e-01
-1.1552341e-01
-1.2074457e-01
-1.2562490e-01
-1.3002922e-01
-1.3401200e-01
-1.3759816e-01
-1.4078238e-01
-1.4349851e-01
-1.4568292e-01
-1.4744391e-01
-1.4876119e-01
-1.4963688e-01
-1.4994000e-01
-1.4978064e-01
-1.4917404e-01
-1.4812860e-01
-1.4657196e-01
-1.4449589e-01
-1.4199834e-01
-1.3907022e-01
-1.3572000e-01
-1.3185321e-01
-1.2758899e-01
-1.2293678e-01
-1.1793017e-01
-1.1250263e-01
-1.0668263e-01
-1.0055375e-01
-9.4124800e-02
-8.7403038e-02
-8.0342266e-02
-7.3052065e-02
-6.5539793e-02
-5.7833603e-02
-4.9912464e-02
-4.1828291e-02
-3.3624600e-02
-2.5326057e-02
-1.6867204e-02
-8.9332494e-03
-4.7631721e-03
-5.3231671e-03
-7.2214613e-03
-8.6660812e-03
-1.0028160e-02
-1.1355070e-02
-1.2659831e-02
-1.3983317e-02
-1.5438118e-02
-1.7049040e-02
-1.8901015e-02
-2.0941294e-02
-2.3548200e-02
-2.6613104e-02
-3.0106953e-02
-3.4140798e-02
-3.9019404e-02
-4.4990547e-02
-5.2018264e-02
-6.0096475e-02
-6.9196000e-02
-7.9670474e-02
-9.0964706e-02
-1.0287133e-01
-1.1525767e-01
-1.2792999e-01
-1.4036359e-01
-1.5224542e-01
-1.6326600e-01
-1.7292138e-01
-1.7992401e-01
-1.8416178e-01
-1.8497792e-01
-1.8201138e-01
-1.7348778e-01
-1.5931538e-01
-1.3961800e-01
-1.1414270e-01
-8.2247342e-02
-4.1844942e-02
 5.0207933e-03
 5.8927198e-02
 1.1962761e-01
 1.8932936e-01
 2.6586000e-01
 3.4770619e-01
 4.3381282e-01
 5.2313802e-01
 6.1384745e-01
 7.0392392e-01
 7.9204779e-01
 8.7686276e-01
 9.5374200e-01
 1.0219728e+00
 1.0796262e+00
 1.1251266e+00
 1.1537773e+00
 1.1639542e+00
 1.1593700e+00
 1.1395979e+00
 1.1056000e+00
 1.0540101e+00
 9.9063530e-01
 9.1656534e-01
 8.3335313e-01
 7.4157266e-01
 6.4452258e-01
 5.4572797e-01
 4.4715400e-01
 3.5063342e-01
 2.5845501e-01
 1.7127835e-01
 8.9773413e-02
 1.4219060e-02
-5.2508932e-02
-1.1083875e-01
-1.6145200e-01
-2.0417764e-01
-2.3856938e-01
-2.6336536e-01
-2.8141630e-01
-2.9265753e-01
-2.9777051e-01
-2.9575260e-01
-2.8899000e-01
-2.7841947e-01
-2.6467344e-01
-2.4815799e-01
-2.2926327e-01
-2.0937090e-01
-1.8889677e-01
-1.6815978e-01
-1.4806400e-01
-1.2885031e-01
-1.1102523e-01
-9.4864966e-02
-8.0568657e-02
-6.8053204e-02
-5.7025033e-02
-4.7422719e-02
-3.9107000e-02
-3.2336011e-02
-2.6514347e-02
-2.1669283e-02
-1.7719817e-02
-1.4532154e-02
-1.1946467e-02
-9.7935274e-03
-7.9350600e-03
-6.2975968e-03
-4.7952920e-03
-3.3641148e-03
-2.0762698e-03
-5.3734976e-04
-4.6295782e-04
 4.7347740e-03
 1.3171160e-02
 2.1594324e-02
 2.9955483e-02
 3.8200209e-02
 4.6330421e-02
 5.4318487e-02
 6.2154570e-02
 6.9754222e-02
 7.7129600e-02
 8.4272819e-02
 9.1169948e-02
 9.7767587e-02
 1.0400335e-01
 1.0993877e-01
 1.1553467e-01
 1.2079286e-01
 1.2559000e-01
 1.3000124e-01
 1.3401390e-01
 1.3763986e-01
 1.4079722e-01
 1.4344464e-01
 1.4567562e-01
 1.4746215e-01
 1.4882000e-01
 1.4958582e-01
 1.4991471e-01
 1.4978529e-01
 1.4922600e-01
 1.4812877e-01
 1.4652208e-01
 1.4449156e-01
 1.4202200e-01
 1.3911857e-01
 1.3566863e-01
 1.3183573e-01
 1.2759625e-01
 1.2298191e-01
 1.1791803e-01
 1.1246779e-01
 1.0668200e-01
 1.0057448e-01
 9.4151352e-02
 8.7366977e-02
 8.0335099e-02
 7.3058045e-02
 6.5565105e-02
 5.7821903e-02
 4.9899400e-02
 4.1829513e-02
 3.3633045e-02
 2.5323320e-02
 1.6920386e-02
 8.4737524e-03
 7.9923354e-07
-8.4778257e-03
-1.6923720e-02
-2.5312960e-02
-3.3624266e-02
-4.1841706e-02
-4.9917571e-02
-5.7812566e-02
-6.5535743e-02
-7.3060904e-02
-8.0374000e-02
-8.7373350e-02
-9.4108654e-02
-1.0055613e-01
-1.0672022e-01
-1.1250267e-01
-1.1788991e-01
-1.2293257e-01
-1.2761000e-01
-1.3189967e-01
-1.3566927e-01
-1.3905140e-01
-1.4200519e-01
-1.4455121e-01
-1.4655715e-01
-1.4808410e-01
-1.4917200e-01
-1.4981158e-01
-1.4998271e-01
-1.4957750e-01
-1.4874616e-01
-1.4745441e-01
-1.4574143e-01
-1.4346989e-01
-1.4074600e-01
-1.3759888e-01
-1.3404589e-01
-1.3005570e-01
-1.2557415e-01
-1.2073669e-01
-1.1553515e-01
-1.0999226e-01
-1.0401400e-01
-9.7727734e-02
-9.1148473e-02
-8.4298639e-02
-7.7157112e-02
-6.9740835e-02
-6.2126651e-02
-5.4323013e-02
-4.6353000e-02
-3.8200990e-02
-2.9941689e-02
-2.1592563e-02
-1.3176082e-02
-4.7108294e-03
 3.7683470e-03
 1.2232560e-02
 2.0661400e-02
 2.9031824e-02
 3.7289475e-02
 4.5433604e-02
 5.3438326e-02
 6.1293413e-02
 6.8922126e-02
 7.6320842e-02
 8.3491600e-02
 9.0415099e-02
 9.7054869e-02
 1.0332433e-01
 1.0929581e-01
 1.1492929e-01
 1.2022925e-01
 1.2507791e-01
 1.2953000e-01
 1.3358846e-01
 1.3725476e-01
 1.4047629e-01
 1.4316975e-01
 1.4545000e-01
 1.4728379e-01
 1.4869750e-01
 1.4952400e-01
 1.4990025e-01
 1.4982237e-01
 1.4930918e-01
 1.4828159e-01
 1.4672007e-01
 1.4473954e-01
 1.4231587e-01
 1.3947000e-01
 1.3607135e-01
 1.3228163e-01
 1.2808678e-01
 1.2351377e-01
 1.1850354e-01
 1.1308934e-01
 1.0734170e-01
 1.0126680e-01
 9.4885326e-02
 8.8133169e-02
 8.1128907e-02
 7.3877766e-02
 6.6409000e-02
 5.8693295e-02
 5.0786939e-02
 4.2733000e-02
 3.4549067e-02
 2.6252621e-02
 1.7856404e-02
 9.4140340e-03
 9.4289272e-04
-7.5365818e-03
-1.5987791e-02
-2.4384200e-02
-3.2705438e-02
-4.0933547e-02
-4.9030123e-02
-5.6943192e-02
-6.4687138e-02
-7.2234367e-02
-7.9576028e-02
-8.6609200e-02
-9.3373911e-02
-9.9854508e-02
-1.0604971e-01
-1.1188314e-01
-1.1730740e-01
-1.2239050e-01
-1.2710709e-01
-1.3145000e-01
-1.3526971e-01
-1.3869629e-01
-1.4169809e-01
-1.4429011e-01
-1.4636277e-01
-1.4793463e-01
-1.4907422e-01
-1.4976000e-01
-1.4999558e-01
-1.4964307e-01
-1.4886129e-01
-1.4761961e-01
-1.4595545e-01
-1.4374891e-01
-1.4106864e-01
-1.3797000e-01
-1.3445819e-01
-1.3052758e-01
-1.2608926e-01
-1.2129254e-01
-1.1612992e-01
-1.1062829e-01
-1.0469615e-01
-9.8440400e-02
-9.1893761e-02
-8.5072049e-02
-7.7967272e-02
-7.0574381e-02
-6.2982555e-02
-5.5198356e-02
-4.7247952e-02
-3.9113000e-02
-3.0864140e-02
-2.2523972e-02
-1.4113955e-02
-5.6530039e-03
 2.8266801e-03
 1.1293479e-02
 1.9726909e-02
 2.8107000e-02
 3.6377280e-02
 4.4535086e-02
 5.2556367e-02
 6.0429309e-02
 6.8087339e-02
 7.5509236e-02
 8.2707193e-02
 8.9657200e-02
 9.6337113e-02
 1.0264181e-01
 1.0864863e-01
 1.1432000e-01
 1.1965955e-01
 1.2456141e-01
 1.2905377e-01
 1.3315800e-01
 1.3686462e-01
 1.4014844e-01
 1.4288990e-01
 1.4521877e-01
 1.4710076e-01
 1.4856654e-01
 1.4945761e-01
 1.4988000e-01
 1.4985399e-01
 1.4938619e-01
 1.4842771e-01
 1.4691291e-01
 1.4498195e-01
 1.4260522e-01
 1.3981318e-01
 1.3647000e-01
 1.3272239e-01
 1.2857266e-01
 1.2404015e-01
 1.1908418e-01
 1.1370671e-01
 1.0799725e-01
 1.0195593e-01
 9.5614000e-02
 8.8896554e-02
 8.1919617e-02
 7.4694853e-02
 6.7249687e-02
 5.9562517e-02
 5.1672583e-02
 4.3634871e-02
 3.5463800e-02
 2.7180562e-02
 1.8791911e-02
 1.0353956e-02
 1.8848575e-03
-6.5949479e-03
-1.5051197e-02
-2.3454527e-02
-3.1785400e-02
-4.0023909e-02
-4.8140288e-02
-5.6071768e-02
-6.3836063e-02
-7.1405543e-02
-7.8773681e-02
-8.5842159e-02
-9.2635600e-02
-9.9149298e-02
-1.0537487e-01
-1.1125847e-01
-1.1672070e-01
-1.2184381e-01
-1.2660021e-01
-1.3099252e-01
-1.3486600e-01
-1.3833582e-01
-1.4138595e-01
-1.4402249e-01
-1.4616238e-01
-1.4777974e-01
-1.4897065e-01
-1.4970384e-01
-1.5000000e-01
-1.4970384e-01
-1.4897065e-01
-1.4777974e-01
-1.4616238e-01
-1.4402249e-01
-1.4138595e-01
-1.3833582e-01
-1.3486600e-01
-1.3099252e-01
-1.2660021e-01
-1.2184381e-01
-1.1672070e-01
-1.1125847e-01
-1.0537487e-01
-9.9149298e-02
-9.2635600e-02
-8.5842159e-02
-7.8773681e-02
-7.1405543e-02
-6.3836063e-02
-5.6071768e-02
-4.8140288e-02
-4.0023909e-02
-3.1785400e-02
-2.3454527e-02
-1.5051197e-02
-6.5949479e-03
 1.8848575e-03
 1.0353956e-02
 1.8791911e-02
 2.7180562e-02
 3.5463800e-02
 4.3634871e-02
 5.1672583e-02
 5.9562517e-02
 6.7249687e-02
 7.4694853e-02
 8.1919617e-02
 8.8896554e-02
 9.5614000e-02
 1.0195593e-01
 1.0799725e-01
 1.1370671e-01
 1.1908418e-01
 1.2404015e-01
 1.2857266e-01
 1.3272239e-01
 1.3647000e-01
 1.3981318e-01
 1.4260522e-01
 1.4498195e-01
 1.4691291e-01
 1.4842771e-01
 1.4938619e-01
 1.4985399e-01
 1.4988000e-01
 1.4945761e-01
 1.4856654e-01
 1.4710076e-01
 1.4521877e-01
 1.4288990e-01
 1.4014844e-01
 1.3686462e-01
 1.3315800e-01
 1.2905377e-01
 1.2456141e-01
 1.1965955e-01
 1.1432000e-01
 1.0864863e-01
 1.0264181e-01
 9.6337113e-02
 8.9657200e-02
 8.2707193e-02
 7.5509236e-02
 6.8087339e-02
 6.0429309e-02
 5.2556367e-02
 4.4535086e-02
 3.6377280e-02
 2.8107000e-02
 1.9726909e-02
 1.1293479e-02
 2.8266801e-03
-5.6530039e-03
-1.4113955e-02
-2.2523972e-02
-3.0864140e-02
-3.9113000e-02
-4.7247952e-02
-5.5198356e-02
-6.2982555e-02
-7.0574381e-02
-7.7967272e-02
-8.5072049e-02
-9.1893761e-02
-9.8440400e-02
-1.0469615e-01
-1.1062829e-01
-1.1612992e-01
-1.2129254e-01
-1.2608926e-01
-1.3052758e-01
-1.3445819e-01
-1.3797000e-01
-1.4106864e-01
-1.4374891e-01
-1.4595545e-01
-1.4761961e-01
-1.4886129e-01
-1.4964307e-01
-1.4999558e-01
-1.4976000e-01
-1.4907422e-01
-1.4793463e-01
-1.4636277e-01
-1.4429011e-01
-1.4169809e-01
-1.3869629e-01
-1.3526971e-01
-1.3145000e-01
-1.2710709e-01
-1.2239050e-01
-1.1730740e-01
-1.1188314e-01
-1.0604971e-01
-9.9854508e-02
-9.3373911e-02
-8.6609200e-02
-7.9576028e-02
-7.2234367e-02
-6.4687138e-02
-5.6943192e-02
-4.9030123e-02
-4.0933547e-02
-3.2705438e-02
-2.4384200e-02
-1.5987791e-02
-7.5365818e-03
 9.4289272e-04
 9.4140340e-03
 1.7856404e-02
 2.6252621e-02
 3.4549067e-02
 4.2733000e-02
 5.0786939e-02
 5.8693295e-02
 6.6409000e-02
 7.3877766e-02
 8.1128907e-02
 8.8133169e-02
 9.4885326e-02
 1.0126680e-01
 1.0734170e-01
 1.1308934e-01
 1.1850354e-01
 1.2351377e-01
 1.2808678e-01
 1.3228163e-01
 1.3607135e-01
 1.3947000e-01
 1.4231587e-01
 1.4473954e-01
 1.4672007e-01
 1.4828159e-01
 1.4930918e-01
 1.4982237e-01
 1.4990025e-01
 1.4952400e-01
 1.4869750e-01
 1.4728379e-01
 1.4545000e-01
 1.4316975e-01
 1.4047629e-01
 1.3725476e-01
 1.3358846e-01
 1.2953000e-01
 1.2507791e-01
 1.2022925e-01
 1.1492929e-01
 1.0929581e-01
 1.0332433e-01
 9.7054869e-02
 9.0415099e-02
 8.3491600e-02
 7.6320842e-02
 6.8922126e-02
 6.1293413e-02
 5.3438326e-02
 4.5433604e-02
 3.7289475e-02
 2.9031824e-02
 2.0661400e-02
 1.2232560e-02
 3.7683470e-03
-4.7108294e-03
-1.3176082e-02
-2.1592563e-02
-2.9941689e-02
-3.8200990e-02
-4.6353000e-02
-5.4323013e-02
-6.2126651e-02
-6.9740835e-02
-7.7157112e-02
-8.4298639e-02
-9.1148473e-02
-9.7727734e-02
-1.0401400e-01
-1.0999226e-01
-1.1553515e-01
-1.2073669e-01
-1.2557415e-01
-1.3005570e-01
-1.3404589e-01
-1.3759888e-01
-1.4074600e-01
-1.4346989e-01
-1.4574143e-01
-1.4745441e-01
-1.4874616e-01
-1.4957750e-01
-1.4998271e-01
-1.4981158e-01
-1.4917200e-01
-1.4808410e-01
-1.4655715e-01
-1.4455121e-01
-1.4200519e-01
-1.3905140e-01
-1.3566927e-01
-1.3189967e-01
-1.2761000e-01
-1.2293257e-01
-1.1788991e-01
-1.1250267e-01
-1.0672022e-01
-1.0055613e-01
-9.4108654e-02
-8.7373350e-02
-8.0374000e-02
-7.3060904e-02
-6.5535743e-02
-5.7812566e-02
-4.9917571e-02
-4.1841706e-02
-3.3624266e-02
-2.5312960e-02
-1.6923720e-02
-8.4778257e-03
 7.9923353e-07
 8.4737524e-03
 1.6920386e-02
 2.5323320e-02
 3.3633045e-02
 4.1829513e-02
 4.9899400e-02
 5.7821903e-02
 6.5565105e-02
 7.3058045e-02
 8.0335099e-02
 8.7366977e-02
 9.4151352e-02
 1.0057448e-01
 1.0668200e-01
 1.1246779e-01
 1.1791803e-01
 1.2298191e-01
 1.2759625e-01
 1.3183573e-01
 1.3566863e-01
 1.3911857e-01
 1.4202200e-01
 1.4449156e-01
 1.4652208e-01
 1.4812877e-01
 1.4922600e-01
 1.4978529e-01
 1.4991471e-01
 1.4958582e-01
 1.4882000e-01
 1.4746215e-01
 1.4567562e-01
 1.4344464e-01
 1.4079722e-01
 1.3763986e-01
 1.3401390e-01
 1.3000124e-01
 1.2559000e-01
 1.2079286e-01
 1.1553467e-01
 1.0993877e-01
 1.0400335e-01
 9.7767587e-02
 9.1169948e-02
 8.4272819e-02
 7.7129600e-02
 6.9754222e-02
 6.2154569e-02
 5.4318493e-02
 4.6330389e-02
 3.8200337e-02
 2.9955054e-02
 2.1595363e-02
 1.3171160e-02
 4.7098448e-03
-3.7685042e-03
-1.2237593e-02
-2.0660329e-02
-2.9018086e-02
-3.7287897e-02
-4.5455370e-02
-5.3445800e-02
-6.1268387e-02
-6.8904855e-02
-7.6343512e-02
-8.3521697e-02
-9.0399823e-02
-9.7011308e-02
-1.0332879e-01
-1.0935000e-01
-1.1493647e-01
-1.2017631e-01
-1.2505476e-01
-1.2957738e-01
-1.3362861e-01
-1.3722261e-01
-1.4041793e-01
-1.4318600e-01
-1.4551979e-01
-1.4728429e-01
-1.4862526e-01
-1.4950698e-01
-1.4996196e-01
-1.4985814e-01
-1.4926402e-01
-1.4822800e-01
-1.4674604e-01
-1.4480526e-01
-1.4230739e-01
-1.3940114e-01
-1.3606451e-01
-1.3234187e-01
-1.2810893e-01
-1.2347000e-01
-1.1846814e-01
-1.1311742e-01
-1.0738596e-01
-1.0125427e-01
-9.4839797e-02
-8.8134575e-02
-8.1167376e-02
-7.3885200e-02
-6.6381846e-02
-5.8679802e-02
-5.0802911e-02
-4.2747412e-02
-3.4544963e-02
-2.6230487e-02
-1.7883855e-02
-9.4186000e-03
-4.6548949e-03
-5.2367338e-03
-6.9934732e-03
-8.5200304e-03
-9.8828336e-03
-1.1208257e-02
-1.2517328e-02
-1.3839800e-02
-1.5255077e-02
-1.6849379e-02
-1.8684731e-02
-2.0756748e-02
-2.3199446e-02
-2.6219015e-02
-2.9687262e-02
-3.3723000e-02
-3.8482321e-02
-4.4132561e-02
-5.1161630e-02
-5.9183591e-02
-6.8259068e-02
-7.8367423e-02
-8.9635053e-02
-1.0153120e-01
-1.1388151e-01
-1.2651719e-01
-1.3905932e-01
-1.5098640e-01
-1.6204719e-01
-1.7169557e-01
-1.7956038e-01
-1.8404200e-01
-1.8505010e-01
-1.8203655e-01
-1.7474675e-01
-1.6177341e-01
-1.4216571e-01
-1.1690268e-01
-8.5476390e-02
-4.7505000e-02
-8.3308494e-04
 5.2712703e-02
 1.1338324e-01
 1.8093301e-01
 2.5649840e-01
 3.3840228e-01
 4.2428711e-01
 5.1319000e-01
 6.0375703e-01
 6.9407911e-01
 7.8238017e-01
 8.6687610e-01
 9.4613713e-01
 1.0157115e+00
 1.0739031e+00
 1.1194400e+00
 1.1506411e+00
 1.1655620e+00
 1.1610005e+00
 1.1419888e+00
 1.1084499e+00
 1.0615928e+00
 9.9896492e-01
 9.2517400e-01
 8.4231253e-01
 7.5198333e-01
 6.5583435e-01
 5.5662921e-01
 4.5811568e-01
 3.6162046e-01
 2.6793982e-01
 1.8038000e-01
 9.8567761e-02
 2.3103412e-02
-4.5581441e-02
-1.0560746e-01
-1.5631584e-01
-1.9934389e-01
-2.3441682e-01
-2.6188000e-01
-2.8003483e-01
-2.9159761e-01
-2.9683818e-01
-2.9644496e-01
-2.9033532e-01
-2.7975892e-01
-2.6614795e-01
-2.4996800e-01
-2.3161639e-01
-2.1161865e-01
-1.9116629e-01
-1.7052774e-01
-1.5020957e-01
-1.3081845e-01
-1.1291956e-01
-9.6714400e-02
-8.2155628e-02
-6.9161980e-02
-5.8147957e-02
-4.8471614e-02
-4.0109548e-02
-3.2939832e-02
-2.7045013e-02
-2.2172800e-02
-1.8179448e-02
-1.4870630e-02
-1.2141747e-02
-1.0017843e-02
-8.1401673e-03
-6.4838275e-03
-4.9453175e-03
-3.5237400e-03
-2.1865305e-03
-7.9997596e-04
-5.6069138e-04
 3.1773151e-03
 1.2360985e-02
 2.0635760e-02
 2.9024011e-02
 3.7303000e-02
 4.5440044e-02
 5.3436526e-02
 6.1269469e-02
 6.8929162e-02
 7.6343531e-02
 8.3493548e-02
 9.0396245e-02
 9.7027200e-02
 1.0336439e-01
 1.0930766e-01
 1.1492113e-01
 1.2018164e-01
 1.2510246e-01
 1.2956371e-01
 1.3358839e-01
 1.3722000e-01
 1.4044769e-01
 1.4322647e-01
 1.4546063e-01
 1.4727015e-01
 1.4863617e-01
 1.4956579e-01
 1.4993182e-01
 1.4982000e-01
 1.4926378e-01
 1.4826606e-01
 1.4677482e-01
 1.4474671e-01
 1.4229745e-01
 1.3941569e-01
 1.3611752e-01
 1.3230400e-01
 1.2808193e-01
 1.2347237e-01
 1.1850357e-01
 1.1312925e-01
 1.0734413e-01
 1.0125014e-01
 9.4852631e-02
 8.8168000e-02
 8.1138786e-02
 7.3873345e-02
 6.6384670e-02
 5.8699421e-02
 5.0802711e-02
 4.2732772e-02
 3.4541703e-02
 2.6245600e-02
 1.7864538e-02
 9.4141540e-03
 9.4196213e-04
-7.5326427e-03
-1.5990761e-02
-2.4390354e-02
-3.2706243e-02
-4.0923000e-02
-4.9020065e-02
-5.6965081e-02
-6.4692545e-02
-7.2228003e-02
-7.9543182e-02
-8.6633282e-02
-9.3393783e-02
-9.9853600e-02
-1.0601727e-01
-1.1187127e-01
-1.1735150e-01
-1.2239682e-01
-1.2709118e-01
-1.3139799e-01
-1.3531511e-01
-1.3872000e-01
-1.4169385e-01
-1.4423990e-01
-1.4636261e-01
-1.4798494e-01
-1.4907885e-01
-1.4973566e-01
-1.4994316e-01
-1.4970000e-01
-1.4888111e-01
-1.4761214e-01
-1.4590010e-01
-1.4376367e-01
-1.4111160e-01
-1.3797128e-01
-1.3443063e-01
-1.3049000e-01
-1.2614090e-01
-1.2130353e-01
-1.1612126e-01
-1.1058398e-01
-1.0471696e-01
-9.8465402e-02
-9.1893092e-02
-8.5050400e-02
-7.7951911e-02
-7.0603362e-02
-6.2986280e-02
-5.5192228e-02
-4.7229659e-02
-3.9124417e-02
-3.0870377e-02
-2.2522800e-02
-1.4110091e-02
-5.6525040e-03
 2.8269000e-03
 1.1294922e-02
 1.9725017e-02
 2.8095362e-02
 3.6389150e-02
 4.4543000e-02
 5.2555529e-02
 6.0407911e-02
 6.8087309e-02
 7.5534640e-02
 8.2710474e-02
 8.9642644e-02
 9.6303308e-02
 1.0268000e-01
 1.0866370e-01
 1.1431446e-01
 1.1961463e-01
 1.2457404e-01
 1.2909307e-01
 1.3315987e-01
 1.3683674e-01
 1.4010800e-01
 1.4294711e-01
 1.4523332e-01
 1.4709087e-01
 1.4850598e-01
 1.4948716e-01
 1.4991827e-01
 1.4985376e-01
 1.4934800e-01
 1.4839772e-01
 1.4697074e-01
 1.4499244e-01
 1.4259119e-01
 1.3975633e-01
 1.3650789e-01
 1.3275036e-01
 1.2857000e-01
 1.2400349e-01
 1.1907208e-01
 1.1375071e-01
 1.0800185e-01
 1.0194276e-01
 9.5577256e-02
 8.8927930e-02
 8.1932800e-02
 7.4691801e-02
 6.7227147e-02
 5.9562541e-02
 5.1691034e-02
 4.3635359e-02
 3.5457512e-02
 2.7171748e-02
 1.8800000e-02
 1.0354618e-02
 1.8838834e-03
-6.5916063e-03
-1.5052669e-02
-2.3461233e-02
-3.1786668e-02
-4.0015780e-02
-4.8126200e-02
-5.6093579e-02
-6.3843026e-02
-7.1401189e-02
-7.8741480e-02
-8.5859066e-02
-9.2659385e-02
-9.9149743e-02
-1.0534800e-01
-1.1123559e-01
-1.1676718e-01
-1.2185264e-01
-1.2658854e-01
-1.3093828e-01
-1.3490312e-01
-1.3836504e-01
-1.4138400e-01
-1.4397863e-01
-1.4614720e-01
-1.4783466e-01
-1.4897830e-01
-1.4968508e-01
-1.4994130e-01
-1.4975486e-01
-1.4899600e-01
-1.4777484e-01
-1.4611207e-01
-1.4402236e-01
-1.4143492e-01
-1.3833943e-01
-1.3484425e-01
-1.3094634e-01
-1.2665000e-01
-1.2185864e-01
-1.1671466e-01
-1.1121619e-01
-1.0538567e-01
-9.9179100e-02
-9.2636363e-02
-8.5824029e-02
-7.8751800e-02
-7.1435144e-02
-6.3841582e-02
-5.6066971e-02
-4.8121859e-02
-4.0032089e-02
-3.1793582e-02
-2.3453701e-02
-1.5047440e-02
-6.5938600e-03
 1.8846800e-03
 1.0355563e-02
 1.8790856e-02
 2.7168712e-02
 3.5473322e-02
 4.3644235e-02
 5.1672600e-02
 5.9544163e-02
 6.7242675e-02
 7.4722342e-02
 8.1924408e-02
 8.8885628e-02
 9.5576323e-02
 1.0198996e-01
 1.0801600e-01
 1.1370340e-01
 1.1904342e-01
 1.2404012e-01
 1.2861695e-01
 1.3272652e-01
 1.3644838e-01
 1.3976367e-01
 1.4266000e-01
 1.4500107e-01
 1.4690608e-01
 1.4837055e-01
 1.4940142e-01
 1.4989893e-01
 1.4988199e-01
 1.4942663e-01
 1.4852400e-01
 1.4715928e-01
 1.4523317e-01
 1.4287952e-01
 1.4009204e-01
 1.3689148e-01
 1.3319198e-01
 1.2905318e-01
 1.2453000e-01
 1.1963609e-01
 1.1436660e-01
 1.0865583e-01
 1.0263156e-01
 9.6298603e-02
 8.9682981e-02
 8.2724296e-02
 7.5507400e-02
 6.8067145e-02
 6.0423150e-02
 5.2577053e-02
 4.4536443e-02
 3.6371990e-02
 2.8096887e-02
 1.9734383e-02
 1.1294880e-02
 2.8257230e-03
-5.6503901e-03
-1.4113923e-02
-2.2531091e-02
-3.0865910e-02
-3.9107029e-02
-4.7230903e-02
-5.5219000e-02
-6.2991289e-02
-7.0571660e-02
-7.7937107e-02
-8.5080725e-02
-9.1921355e-02
-9.8442241e-02
-1.0467477e-01
-1.1059600e-01
-1.1617681e-01
-1.2130436e-01
-1.2608108e-01
-1.3047402e-01
-1.3448442e-01
-1.3800506e-01
-1.4106882e-01
-1.4371200e-01
-1.4592619e-01
-1.4767735e-01
-1.4887246e-01
-1.4962888e-01
-1.4993434e-01
-1.4980175e-01
-1.4910586e-01
-1.4793200e-01
-1.4631873e-01
-1.4427503e-01
-1.4175187e-01
-1.3870267e-01
-1.3525285e-01
-1.3139824e-01
-1.2715186e-01
-1.2241000e-01
-1.1730358e-01
-1.1184431e-01
-1.0604966e-01
-9.9888743e-02
-9.3376266e-02
-8.6594397e-02
-7.9549046e-02
-7.2263000e-02
-6.4694875e-02
-5.6939573e-02
-4.9012302e-02
-4.0937835e-02
-3.2715646e-02
-2.4383734e-02
-1.5984229e-02
-7.5348800e-03
 9.4236399e-04
 9.4157553e-03
 1.7855977e-02
 2.6241230e-02
 3.4555684e-02
 4.2743835e-02
 5.0787721e-02
 5.8678200e-02
 6.6395544e-02
 7.3906438e-02
 8.1135429e-02
 8.8125227e-02
 9.4846191e-02
 1.0129451e-01
 1.0736457e-01
 1.1308800e-01
 1.1846792e-01
 1.2350116e-01
 1.2813496e-01
 1.3228841e-01
 1.3605493e-01
 1.3941472e-01
 1.4236486e-01
 1.4476400e-01
 1.4671579e-01
 1.4822979e-01
 1.4930900e-01
 1.4987335e-01
 1.4990477e-01
 1.4949965e-01
 1.4864523e-01
 1.4734000e-01
 1.4546900e-01
 1.4316244e-01
 1.4042275e-01
 1.3726864e-01
 1.3362845e-01
 1.2953153e-01
 1.2505179e-01
 1.2019600e-01
 1.1497650e-01
 1.0930614e-01
 1.0331652e-01
 9.7016598e-02
 9.0433403e-02
 8.3513006e-02
 7.6320122e-02
 6.8904600e-02
 6.1281389e-02
 5.3460539e-02
 4.5436046e-02
 3.7285095e-02
 2.9020985e-02
 2.0667682e-02
 1.2234917e-02
 3.7674400e-03
-4.7089995e-03
-1.3174636e-02
-2.1599912e-02
-2.9944004e-02
-3.8196788e-02
-4.6334192e-02
-5.4341264e-02
-6.2137400e-02
-6.9739452e-02
-7.7130005e-02
-8.4298593e-02
-9.1179444e-02
-9.7731169e-02
-1.0399760e-01
-1.0995285e-01
-1.1558000e-01
-1.2075210e-01
-1.2556882e-01
-1.3000512e-01
-1.3405940e-01
-1.3763971e-01
-1.4074837e-01
-1.4343994e-01
-1.4570000e-01
-1.4751260e-01
-1.4876141e-01
-1.4956707e-01
-1.4992219e-01
-1.4984110e-01
-1.4921034e-01
-1.4808363e-01
-1.4652000e-01
-1.4452210e-01
-1.4206200e-01
-1.3906107e-01
-1.3565642e-01
-1.3184562e-01
-1.2764672e-01
-1.2295763e-01
-1.1788800e-01
-1.1246828e-01
-1.0670921e-01
-1.0059399e-01
-9.4112857e-02
-8.7361473e-02
-8.0343615e-02
-7.3086724e-02
-6.5546200e-02
-5.7809995e-02
-4.9900939e-02
-4.1841725e-02
-3.3636402e-02
-2.5312907e-02
-1.6920421e-02
-8.4755204e-03
-8.5157575e-15
 8.4755204e-03
 1.6920421e-02
 2.5312907e-02
 3.3636402e-02
 4.1841725e-02
 4.9900939e-02
 5.7809995e-02
 6.5546200e-02
 7.3086724e-02
 8.0343615e-02
 8.7361473e-02
 9.4112857e-02
 1.0059399e-01
 1.0670921e-01
 1.1246828e-01
 1.1788800e-01
 1.2295763e-01
 1.2764672e-01
 1.3184562e-01
 1.3565642e-01
 1.3906107e-01
 1.4206200e-01
 1.4452210e-01
 1.4652000e-01
 1.4808363e-01
 1.4921034e-01
 1.4984110e-01
 1.4992219e-01
 1.4956707e-01
 1.4876141e-01
 1.4751260e-01
 1.4570000e-01
 1.4343994e-01
 1.4074837e-01
 1.3763971e-01
 1.3405940e-01
 1.3000512e-01
 1.2556882e-01
 1.2075210e-01
 1.1558000e-01
 1.0995285e-01
 1.0399760e-01
 9.7731169e-02
 9.1179444e-02
 8.4298593e-02
 7.7130005e-02
 6.9739452e-02
 6.2137400e-02
 5.4341264e-02
 4.6334192e-02
 3.8196788e-02
 2.9944004e-02
 2.1599912e-02
 1.3174636e-02
 4.7089995e-03
-3.7674400e-03
-1.2234917e-02
-2.0667682e-02
-2.9020985e-02
-3.7285095e-02
-4.5436046e-02
-5.3460539e-02
-6.1281389e-02
-6.8904600e-02
-7.6320122e-02
-8.3513006e-02
-9.0433403e-02
-9.7016598e-02
-1.0331652e-01
-1.0930614e-01
-1.1497650e-01
-1.2019600e-01
-1.2505179e-01
-1.2953153e-01
-1.3362845e-01
-1.3726864e-01
-1.4042275e-01
-1.4316244e-01
-1.4546900e-01
-1.4734000e-01
-1.4864523e-01
-1.4949965e-01
-1.4990477e-01
-1.4987335e-01
-1.4930900e-01
-1.4822979e-01
-1.4671579e-01
-1.4476400e-01
-1.4236486e-01
-1.3941472e-01
-1.3605493e-01
-1.3228841e-01
-1.2813496e-01
-1.2350116e-01
-1.1846792e-01
-1.1308800e-01
-1.0736457e-01
-1.0129451e-01
-9.4846191e-02
-8.8125227e-02
-8.1135429e-02
-7.3906438e-02
-6.6395544e-02
-5.8678200e-02
-5.0787721e-02
-4.2743835e-02
-3.4555684e-02
-2.6241230e-02
-1.7855977e-02
-9.4157553e-03
-9.4236399e-04
 7.5348800e-03
 1.5984229e-02
 2.4383734e-02
 3.2715646e-02
 4.0937835e-02
 4.9012302e-02
 5.6939573e-02
 6.4694875e-02
 7.2263000e-02
 7.9549046e-02
 8.6594397e-02
 9.3376266e-02
 9.9888743e-02
 1.0604966e-01
 1.1184431e-01
 1.1730358e-01
 1.2241000e-01
 1.2715186e-01
 1.3139824e-01
 1.3525285e-01
 1.3870267e-01
 1.4175187e-01
 1.4427503e-01
 1.4631873e-01
 1.4793200e-01
 1.4910586e-01
 1.4980175e-01
 1.4993434e-01
 1.4962888e-01
 1.4887246e-01
 1.4767735e-01
 1.4592619e-01
 1.4371200e-01
 1.4106882e-01
 1.3800506e-01
 1.3448442e-01
 1.3047402e-01
 1.2608108e-01
 1.2130436e-01
 1.1617681e-01
 1.1059600e-01
 1.0467477e-01
 9.8442241e-02
 9.1921355e-02
 8.5080725e-02
 7.7937107e-02
 7.0571660e-02
 6.2991289e-02
 5.5219000e-02
 4.7230903e-02
 3.9107029e-02
 3.0865910e-02
 2.2531091e-02
 1.4113923e-02
 5.6503901e-03
-2.8257230e-03
-1.1294880e-02
-1.9734383e-02
-2.8096887e-02
-3.6371990e-02
-4.4536443e-02
-5.2577053e-02
-6.0423150e-02
-6.8067145e-02
-7.5507400e-02
-8.2724296e-02
-8.9682981e-02
-9.6298603e-02
-1.0263156e-01
-1.0865583e-01
-1.1436660e-01
-1.1963609e-01
-1.2453000e-01
-1.2905318e-01
-1.3319198e-01
-1.3689148e-01
-1.4009204e-01
-1.4287952e-01
-1.4523317e-01
-1.4715928e-01
-1.4852400e-01
-1.4942663e-01
-1.4988199e-01
-1.4989893e-01
-1.4940142e-01
-1.4837055e-01
-1.4690608e-01
-1.4500107e-01
-1.4266000e-01
-1.3976367e-01
-1.3644838e-01
-1.3272652e-01
-1.2861695e-01
-1.2404012e-01
-1.1904342e-01
-1.1370340e-01
-1.0801600e-01
-1.0198996e-01
-9.5576323e-02
-8.8885628e-02
-8.1924408e-02
-7.4722342e-02
-6.7242675e-02
-5.9544163e-02
-5.1672600e-02
-4.3644235e-02
-3.5473322e-02
-2.7168712e-02
-1.8790856e-02
-1.0355563e-02
-1.8846800e-03
 6.5938600e-03
 1.5047440e-02
 2.3453701e-02
 3.1793582e-02
 4.0032089e-02
 4.8121859e-02
 5.6066971e-02
 6.3841582e-02
 7.1435144e-02
 7.8751800e-02
 8.5824029e-02
 9.2636363e-02
 9.9179100e-02
 1.0538567e-01
 1.1121619e-01
 1.1671466e-01
 1.2185864e-01
 1.2665000e-01
 1.3094634e-01
 1.3484425e-01
 1.3833943e-01
 1.4143492e-01
 1.4402236e-01
 1.4611207e-01
 1.4777484e-01
 1.4899600e-01
 1.4975486e-01
 1.4994130e-01
 1.4968508e-01
 1.4897830e-01
 1.4783466e-01
 1.4614720e-01
 1.4397863e-01
 1.4138400e-01
 1.3836504e-01
 1.3490312e-01
 1.3093828e-01
 1.2658854e-01
 1.2185264e-01
 1.1676718e-01
 1.1123559e-01
 1.0534800e-01
 9.9149743e-02
 9.2659385e-02
 8.5859066e-02
 7.8741480e-02
 7.1401189e-02
 6.3843026e-02
 5.6093579e-02
 4.8126200e-02
 4.0015780e-02
 3.1786668e-02
 2.3461233e-02
 1.5052669e-02
 6.5916063e-03
-1.8838834e-03
-1.0354618e-02
-1.8800000e-02
-2.7171748e-02
-3.5457512e-02
-4.3635359e-02
-5.1691034e-02
-5.9562541e-02
-6.7227147e-02
-7.4691801e-02
-8.1932800e-02
-8.8927930e-02
-9.5577256e-02
-1.0194276e-01
-1.0800185e-01
-1.1375071e-01
-1.1907208e-01
-1.2400349e-01
-1.2857000e-01
-1.3275036e-01
-1.3650789e-01
-1.3975633e-01
-1.4259119e-01
-1.4499244e-01
-1.4697074e-01
-1.4839772e-01
-1.4934800e-01
-1.4985376e-01
-1.4991827e-01
-1.4948716e-01
-1.4850598e-01
-1.4709087e-01
-1.4523332e-01
-1.4294711e-01
-1.4010800e-01
-1.3683674e-01
-1.3315987e-01
-1.2909307e-01
-1.2457404e-01
-1.1961463e-01
-1.1431446e-01
-1.0866370e-01
-1.0268000e-01
-9.6303308e-02
-8.9642644e-02
-8.2710474e-02
-7.5534638e-02
-6.8087314e-02
-6.0407894e-02
-5.2555569e-02
-4.4543000e-02
-3.6388325e-02
-2.8101979e-02
-1.9687882e-02
-1.1561001e-02
-4.7915847e-03
-4.6560479e-03
-6.6433560e-03
-8.1880200e-03
-9.5821840e-03
-1.0917973e-02
-1.2226399e-02
-1.3542165e-02
-1.4947560e-02
-1.6452412e-02
-1.8244771e-02
-2.0266200e-02
-2.2661535e-02
-2.5512893e-02
-2.8825226e-02
-3.2744911e-02
-3.7399871e-02
-4.2889483e-02
-4.9391337e-02
-5.7252800e-02
-6.6165962e-02
-7.6129392e-02
-8.7050252e-02
-9.8788950e-02
-1.1110918e-01
-1.2369841e-01
-1.3626401e-01
-1.4847000e-01
-1.5976069e-01
-1.6968117e-01
-1.7770802e-01
-1.8346350e-01
-1.8551977e-01
-1.8312700e-01
-1.7638829e-01
-1.6479800e-01
-1.4775434e-01
-1.2324547e-01
-9.2837118e-02
-5.5770005e-02
-1.2302159e-02
 3.9613153e-02
 9.9281336e-02
 1.6591800e-01
 2.3934355e-01
 3.1920050e-01
 4.0485576e-01
 4.9334263e-01
 5.8354852e-01
 6.7422118e-01
 7.6325010e-01
 8.4857000e-01
 9.2832141e-01
 1.0009682e+00
 1.0633861e+00
 1.1108655e+00
 1.1442344e+00
 1.1621249e+00
 1.1650533e+00
 1.1482800e+00
 1.1169237e+00
 1.0718106e+00
 1.0141327e+00
 9.4349750e-01
 8.6146727e-01
 7.7223350e-01
 6.7736091e-01
 5.7878000e-01
 4.7975405e-01
 3.8285018e-01
 2.8896328e-01
 1.9910866e-01
 1.1564218e-01
 3.9216155e-02
-3.0376252e-02
-9.2484000e-02
-1.4674041e-01
-1.9074321e-01
-2.2706764e-01
-2.5561866e-01
-2.7710503e-01
-2.9012863e-01
-2.9617017e-01
-2.9656800e-01
-2.9192947e-01
-2.8285984e-01
-2.6945434e-01
-2.5366804e-01
-2.3571037e-01
-2.1619621e-01
-1.9575896e-01
-1.7508800e-01
-1.5474446e-01
-1.3505386e-01
-1.1655139e-01
-1.0013833e-01
-8.5336600e-02
-7.2060835e-02
-6.0304370e-02
-5.0434000e-02
-4.1879035e-02
-3.4543411e-02
-2.8251180e-02
-2.3067320e-02
-1.8997592e-02
-1.5594804e-02
-1.2735024e-02
-1.0423000e-02
-8.5275979e-03
-6.8421662e-03
-5.2900998e-03
-3.8257383e-03
-2.4756057e-03
-1.1281782e-03
-2.5183666e-04
 1.8837200e-03
 1.0426390e-02
 1.8765597e-02
 2.7175885e-02
 3.5456303e-02
 4.3653195e-02
 5.1685688e-02
 5.9544939e-02
 6.7225400e-02
 7.4707244e-02
 8.1956298e-02
 8.8892786e-02
 9.5567309e-02
 1.0194902e-01
 1.0804647e-01
 1.1372774e-01
 1.1904200e-01
 1.2400279e-01
 1.2860348e-01
 1.3277710e-01
 1.3645525e-01
 1.3974548e-01
 1.4260483e-01
 1.4505170e-01
 1.4693000e-01
 1.4836618e-01
 1.4935041e-01
 1.4989911e-01
 1.4993390e-01
 1.4943134e-01
 1.4849860e-01
 1.4710943e-01
 1.4529000e-01
 1.4289765e-01
 1.4008442e-01
 1.3684134e-01
 1.3320584e-01
 1.2909314e-01
 1.2453101e-01
 1.1961140e-01
 1.1433400e-01
 1.0870130e-01
 1.0264049e-01
 9.6291156e-02
 8.9647898e-02
 8.2740994e-02
 7.5526786e-02
 6.8066393e-02
 6.0407800e-02
 5.2566747e-02
 4.4555217e-02
 3.6373699e-02
 2.8093371e-02
 1.9727299e-02
 1.1298505e-02
 2.8261078e-03
-5.6511600e-03
-1.4109245e-02
-2.2528679e-02
-3.0876739e-02
-3.9109820e-02
-4.7225399e-02
-5.5196905e-02
-6.3012517e-02
-7.0583800e-02
-7.7935444e-02
-8.5050900e-02
-9.1921374e-02
-9.8475587e-02
-1.0467875e-01
-1.1057747e-01
-1.1613621e-01
-1.2135000e-01
-1.2609795e-01
-1.3046745e-01
-1.3443448e-01
-1.3801936e-01
-1.4111176e-01
-1.4371440e-01
-1.4589562e-01
-1.4763600e-01
-1.4893364e-01
-1.4964303e-01
-1.4992339e-01
-1.4974293e-01
-1.4913606e-01
-1.4796984e-01
-1.4631877e-01
-1.4423800e-01
-1.4172364e-01
-1.3875927e-01
-1.3526169e-01
-1.3138472e-01
-1.2710119e-01
-1.2244424e-01
-1.1732805e-01
-1.1184200e-01
-1.0601820e-01
-9.9878712e-02
-9.3412451e-02
-8.6597913e-02
-7.9538229e-02
-7.2235763e-02
-6.4717829e-02
-5.6948600e-02
-4.9009944e-02
-4.0924455e-02
-3.2715684e-02
-2.4392800e-02
-1.5983855e-02
-7.5331523e-03
 9.4140949e-04
 9.4186000e-03
 1.7858966e-02
 2.6240768e-02
 3.4541905e-02
 4.2748176e-02
 5.0802747e-02
 5.8679832e-02
 6.6381843e-02
 7.3885200e-02
 8.1167376e-02
 8.8134575e-02
 9.4839797e-02
 1.0125427e-01
 1.0738596e-01
 1.1311742e-01
 1.1846814e-01
 1.2347000e-01
 1.2810893e-01
 1.3234187e-01
 1.3606451e-01
 1.3940114e-01
 1.4230739e-01
 1.4480526e-01
 1.4674604e-01
 1.4822800e-01
 1.4926402e-01
 1.4985814e-01
 1.4996196e-01
 1.4950698e-01
 1.4862526e-01
 1.4728429e-01
 1.4551979e-01
 1.4318600e-01
 1.4041793e-01
 1.3722261e-01
 1.3362861e-01
 1.2957738e-01
 1.2505476e-01
 1.2017631e-01
 1.1493647e-01
 1.0935000e-01
 1.0332879e-01
 9.7011308e-02
 9.0399823e-02
 8.3521697e-02
 7.6343512e-02
 6.8904855e-02
 6.1268387e-02
 5.3445800e-02
 4.5455370e-02
 3.7287897e-02
 2.9018086e-02
 2.0660329e-02
 1.2237593e-02
 3.7685042e-03
-4.7098448e-03
-1.3171160e-02
-2.1595363e-02
-2.9955054e-02
-3.8200337e-02
-4.6330389e-02
-5.4318493e-02
-6.2154569e-02
-6.9754222e-02
-7.7129600e-02
-8.4272819e-02
-9.1169948e-02
-9.7767587e-02
-1.0400335e-01
-1.0993877e-01
-1.1553467e-01
-1.2079286e-01
-1.2559000e-01
-1.3000124e-01
-1.3401390e-01
-1.3763986e-01
-1.4079722e-01
-1.4344464e-01
-1.4567562e-01
-1.4746215e-01
-1.4882000e-01
-1.4958582e-01
-1.4991471e-01
-1.4978529e-01
-1.4922600e-01
-1.4812877e-01
-1.4652208e-01
-1.4449156e-01
-1.4202200e-01
-1.3911857e-01
-1.3566863e-01
-1.3183573e-01
-1.2759625e-01
-1.2298191e-01
-1.1791803e-01
-1.1246779e-01
-1.0668200e-01
-1.0057448e-01
-9.4151352e-02
-8.7366977e-02
-8.0335099e-02
-7.3058045e-02
-6.5565105e-02
-5.7821903e-02
-4.9899400e-02
-4.1829513e-02
-3.3633045e-02
-2.5323320e-02
-1.6920386e-02
-8.4737524e-03
-7.9923353e-07
 8.4778257e-03
 1.6923720e-02
 2.5312960e-02
 3.3624266e-02
 4.1841706e-02
 4.9917571e-02
 5.7812566e-02
 6.5535743e-02
 7.3060904e-02
 8.0374000e-02
 8.7373350e-02
 9.4108654e-02
 1.0055613e-01
 1.0672022e-01
 1.1250267e-01
 1.1788991e-01
 1.2293257e-01
 1.2761000e-01
 1.3189967e-01
 1.3566927e-01
 1.3905140e-01
 1.4200519e-01
 1.4455121e-01
 1.4655715e-01
 1.4808410e-01
 1.4917200e-01
 1.4981158e-01
 1.4998271e-01
 1.4957750e-01
 1.4874616e-01
 1.4745441e-01
 1.4574143e-01
 1.4346989e-01
 1.4074600e-01
 1.3759888e-01
 1.3404589e-01
 1.3005570e-01
 1.2557415e-01
 1.2073669e-01
 1.1553515e-01
 1.0999226e-01
 1.0401400e-01
 9.7727734e-02
 9.1148473e-02
 8.4298639e-02
 7.7157112e-02
 6.9740835e-02
 6.2126651e-02
 5.4323013e-02
 4.6353000e-02
 3.8200990e-02
 2.9941689e-02
 2.1592563e-02
 1.3176082e-02
 4.7108294e-03
-3.7683470e-03
-1.2232560e-02
-2.0661400e-02
-2.9031824e-02
-3.7289475e-02
-4.5433604e-02
-5.3438326e-02
-6.1293413e-02
-6.8922126e-02
-7.6320842e-02
-8.3491600e-02
-9.0415099e-02
-9.7054869e-02
-1.0332433e-01
-1.0929581e-01
-1.1492929e-01
-1.2022925e-01
-1.2507791e-01
-1.2953000e-01
-1.3358846e-01
-1.3725476e-01
-1.4047629e-01
-1.4316975e-01
-1.4545000e-01
-1.4728379e-01
-1.4869750e-01
-1.4952400e-01
-1.4990025e-01
-1.4982237e-01
-1.4930918e-01
-1.4828159e-01
-1.4672007e-01
-1.4473954e-01
-1.4231587e-01
-1.3947000e-01
-1.3607135e-01
-1.3228163e-01
-1.2808678e-01
-1.2351377e-01
-1.1850354e-01
-1.1308934e-01
-1.0734170e-01
-1.0126680e-01
-9.4885326e-02
-8.8133169e-02
-8.1128907e-02
-7.3877766e-02
-6.6409000e-02
-5.8693295e-02
-5.0786939e-02
-4.2733000e-02
-3.4549067e-02
-2.6252621e-02
-1.7856404e-02
-9.4140340e-03
-9.4289272e-04
 7.5365818e-03
 1.5987791e-02
 2.4384200e-02
 3.2705438e-02
 4.0933547e-02
 4.9030123e-02
 5.6943192e-02
 6.4687138e-02
 7.2234367e-02
 7.9576028e-02
 8.6609200e-02
 9.3373911e-02
 9.9854508e-02
 1.0604971e-01
 1.1188314e-01
 1.1730740e-01
 1.2239050e-01
 1.2710709e-01
 1.3145000e-01
 1.3526971e-01
 1.3869629e-01
 1.4169809e-01
 1.4429011e-01
 1.4636277e-01
 1.4793463e-01
 1.4907422e-01
 1.4976000e-01
 1.4999558e-01
 1.4964307e-01
 1.4886129e-01
 1.4761961e-01
 1.4595545e-01
 1.4374891e-01
 1.4106864e-01
 1.3797000e-01
 1.3445819e-01
 1.3052758e-01
 1.2608926e-01
 1.2129254e-01
 1.1612992e-01
 1.1062829e-01
 1.0469615e-01
 9.8440400e-02
 9.1893761e-02
 8.5072049e-02
 7.7967272e-02
 7.0574381e-02
 6.2982555e-02
 5.5198356e-02
 4.7247952e-02
 3.9113000e-02
 3.0864140e-02
 2.2523972e-02
 1.4113955e-02
 5.6530039e-03
-2.8266801e-03
-1.1293479e-02
-1.9726909e-02
-2.8107000e-02
-3.6377280e-02
-4.4535086e-02
-5.2556367e-02
-6.0429309e-02
-6.8087339e-02
-7.5509236e-02
-8.2707193e-02
-8.9657200e-02
-9.6337113e-02
-1.0264181e-01
-1.0864863e-01
-1.1432000e-01
-1.1965955e-01
-1.2456141e-01
-1.2905377e-01
-1.3315800e-01
-1.3686462e-01
-1.4014844e-01
-1.4288990e-01
-1.4521877e-01
-1.4710076e-01
-1.4856654e-01
-1.4945761e-01
-1.4988000e-01
-1.4985399e-01
-1.4938619e-01
-1.4842771e-01
-1.4691291e-01
-1.4498195e-01
-1.4260522e-01
-1.3981318e-01
-1.3647000e-01
-1.3272239e-01
-1.2857266e-01
-1.2404015e-01
-1.1908418e-01
-1.1370671e-01
-1.0799725e-01
-1.0195593e-01
-9.5614000e-02
-8.8896554e-02
-8.1919617e-02
-7.4694853e-02
-6.7249687e-02
-5.9562517e-02
-5.1672583e-02
-4.3634871e-02
-3.5463800e-02
-2.7180562e-02
-1.8791911e-02
-1.0353956e-02
-1.8848575e-03
 6.5949479e-03
 1.5051197e-02
 2.3454527e-02
 3.1785400e-02
 4.0023909e-02
 4.8140288e-02
 5.6071768e-02
 6.3836063e-02
 7.1405543e-02
 7.8773681e-02
 8.5842159e-02
 9.2635600e-02
 9.9149298e-02
 1.0537487e-01
 1.1125847e-01
 1.1672070e-01
 1.2184381e-01
 1.2660021e-01
 1.3099252e-01
 1.3486600e-01
 1.3833582e-01
 1.4138595e-01
 1.4402249e-01
 1.4616238e-01
 1.4777974e-01
 1.4897065e-01
 1.4970384e-01
 1.5000000e-01
 1.4970384e-01
 1.4897065e-01
 1.4777974e-01
 1.4616238e-01
 1.4402249e-01
 1.4138595e-01
 1.3833582e-01
 1.3486600e-01
 1.3099252e-01
 1.2660021e-01
 1.2184381e-01
 1.1672070e-01
 1.1125847e-01
 1.0537487e-01
 9.9149298e-02
 9.2635600e-02
 8.5842159e-02
 7.8773681e-02
 7.1405543e-02
 6.3836063e-02
 5.6071768e-02
 4.8140288e-02
 4.0023909e-02
 3.1785400e-02
 2.3454527e-02
 1.5051197e-02
 6.5949479e-03
-1.8848575e-03
-1.0353956e-02
-1.8791911e-02
-2.7180562e-02
-3.5463800e-02
-4.3634871e-02
-5.1672583e-02
-5.9562517e-02
-6.7249687e-02
-7.4694853e-02
-8.1919617e-02
-8.8896554e-02
-9.5614000e-02
-1.0195593e-01
-1.0799725e-01
-1.1370671e-01
-1.1908418e-01
-1.2404015e-01
-1.2857266e-01
-1.3272239e-01
-1.3647000e-01
-1.3981318e-01
-1.4260522e-01
-1.4498195e-01
-1.4691291e-01
-1.4842771e-01
-1.4938619e-01
-1.4985399e-01
-1.4988000e-01
-1.4945761e-01
-1.4856654e-01
-1.4710076e-01
-1.4521877e-01
-1.4288990e-01
-1.4014844e-01
-1.3686462e-01
-1.3315800e-01
-1.2905377e-01
-1.2456141e-01
-1.1965955e-01
-1.1432000e-01
-1.0864863e-01
-1.0264181e-01
-9.6337113e-02
-8.9657200e-02
-8.2707193e-02
-7.5509236e-02
-6.8087339e-02
-6.0429309e-02
-5.2556367e-02
-4.4535086e-02
-3.6377280e-02
-2.8107000e-02
-1.9726909e-02
-1.1293479e-02
-2.8266801e-03
 5.6530039e-03
 1.4113955e-02
 2.2523972e-02
 3.0864140e-02
 3.9113000e-02
 4.7247952e-02
 5.5198356e-02
 6.2982555e-02
 7.0574381e-02
 7.7967272e-02
 8.5072049e-02
 9.1893761e-02
 9.8440400e-02
 1.0469615e-01
 1.1062829e-01
 1.1612992e-01
 1.2129254e-01
 1.2608926e-01
 1.3052758e-01
 1.3445819e-01
 1.3797000e-01
 1.4106864e-01
 1.4374891e-01
 1.4595545e-01
 1.4761961e-01
 1.4886129e-01
 1.4964307e-01
 1.4999558e-01
 1.4976000e-01
 1.4907422e-01
 1.4793463e-01
 1.4636277e-01
 1.4429011e-01
 1.4169809e-01
 1.3869629e-01
 1.3526971e-01
 1.3145000e-01
 1.2710709e-01
 1.2239050e-01
 1.1730740e-01
 1.1188314e-01
 1.0604971e-01
 9.9854508e-02
 9.3373911e-02
 8.6609200e-02
 7.9576028e-02
 7.2234367e-02
 6.4687138e-02
 5.6943192e-02
 4.9030123e-02
 4.0933547e-02
 3.2705438e-02
 2.4384200e-02
 1.5987791e-02
 7.5365818e-03
-9.4289272e-04
-9.4140340e-03
-1.7856404e-02
-2.6252621e-02
-3.4549067e-02
-4.2733000e-02
-5.0786939e-02
-5.8693295e-02
-6.6409000e-02
-7.3877766e-02
-8.1128907e-02
-8.8133169e-02
-9.4885326e-02
-1.0126680e-01
-1.0734170e-01
-1.1308934e-01
-1.1850354e-01
-1.2351377e-01
-1.2808678e-01
-1.3228163e-01
-1.3607135e-01
-1.3947000e-01
-1.4231587e-01
-1.4473954e-01
-1.4672007e-01
-1.4828159e-01
-1.4930918e-01
-1.4982237e-01
-1.4990025e-01
-1.4952400e-01
-1.4869750e-01
-1.4728379e-01
-1.4545000e-01
-1.4316975e-01
-1.4047629e-01
-1.3725476e-01
-1.3358846e-01
-1.2953000e-01
-1.2507791e-01
-1.2022925e-01
-1.1492929e-01
-1.0929581e-01
-1.0332433e-01
-9.7054869e-02
-9.0415099e-02
-8.3491600e-02
-7.6320842e-02
-6.8922130e-02
-6.1293389e-02
-5.3438436e-02
-4.5433161e-02
-3.7290967e-02
-2.9028211e-02
-2.0661400e-02
-1.2309793e-02
-5.9949440e-03
-4.3679014e-03
-6.5181097e-03
-8.0078679e-03
-9.4324703e-03
-1.0767937e-02
-1.2086000e-02
-1.3386961e-02
-1.4785543e-02
-1.6305441e-02
-1.8025333e-02
-1.9997356e-02
-2.2368434e-02
-2.5203548e-02
-2.8476600e-02
-3.2183317e-02
-3.6814043e-02
-4.2257374e-02
-4.8744588e-02
-5.6252832e-02
-6.5033722e-02
-7.4978253e-02
-8.5855000e-02
-9.7480734e-02
-1.0966495e-01
-1.2230711e-01
-1.3487425e-01
-1.4704706e-01
-1.5866769e-01
-1.6878933e-01
-1.7693800e-01
-1.8263490e-01
-1.8540149e-01
-1.8412570e-01
-1.7746998e-01
-1.6609583e-01
-1.4928201e-01
-1.2693007e-01
-9.6910400e-02
-6.0151399e-02
-1.6686083e-02
 3.3393107e-02
 9.1507384e-02
 1.5810118e-01
 2.3124501e-01
 3.1048939e-01
 3.9469000e-01
 4.8336004e-01
 5.7353909e-01
 6.6398042e-01
 7.5360518e-01
 8.3981035e-01
 9.1990745e-01
 9.9262002e-01
 1.0560800e+00
 1.1080810e+00
 1.1418294e+00
 1.1604940e+00
 1.1636097e+00
 1.1519554e+00
 1.1222642e+00
 1.0774423e+00
 1.0201480e+00
 9.5141478e-01
 8.7210071e-01
 7.8253232e-01
 6.8792148e-01
 5.8983359e-01
 4.9054803e-01
 3.9328219e-01
 2.9918400e-01
 2.0939929e-01
 1.2473355e-01
 4.6564462e-02
-2.3159815e-02
-8.5600098e-02
-1.4021595e-01
-1.8716517e-01
-2.2384200e-01
-2.5272408e-01
-2.7429901e-01
-2.8910717e-01
-2.9646798e-01
-2.9681518e-01
-2.9240846e-01
-2.8374083e-01
-2.7143000e-01
-2.5562392e-01
-2.3774092e-01
-2.1834390e-01
-1.9806776e-01
-1.7736716e-01
-1.5695669e-01
-1.3728289e-01
-1.1865800e-01
-1.0164010e-01
-8.6863603e-02
-7.3500668e-02
-6.1712526e-02
-5.1364953e-02
-4.2663972e-02
-3.5306522e-02
-2.8988800e-02
-2.3637792e-02
-1.9302350e-02
-1.5938514e-02
-1.3048625e-02
-1.0694531e-02
-8.7013555e-03
-7.0135133e-03
-5.4578200e-03
-3.9926960e-03
-2.6295316e-03
-1.2168364e-03
-4.9255217e-04
 1.7711513e-03
 9.3006740e-03
 1.7878677e-02
 2.6245600e-02
 3.4541015e-02
 4.2733056e-02
 5.0802626e-02
 5.8699442e-02
 6.6384666e-02
 7.3873346e-02
 8.1138786e-02
 8.8168000e-02
 9.4852631e-02
 1.0125014e-01
 1.0734413e-01
 1.1312925e-01
 1.1850357e-01
 1.2347237e-01
 1.2808193e-01
 1.3230400e-01
 1.3611752e-01
 1.3941569e-01
 1.4229745e-01
 1.4474671e-01
 1.4677482e-01
 1.4826606e-01
 1.4926378e-01
 1.4982000e-01
 1.4993182e-01
 1.4956579e-01
 1.4863617e-01
 1.4727015e-01
 1.4546063e-01
 1.4322647e-01
 1.4044769e-01
 1.3722000e-01
 1.3358839e-01
 1.2956371e-01
 1.2510246e-01
 1.2018164e-01
 1.1492113e-01
 1.0930766e-01
 1.0336439e-01
 9.7027200e-02
 9.0396245e-02
 8.3493548e-02
 7.6343532e-02
 6.8929158e-02
 6.1269486e-02
 5.3436469e-02
 4.5440181e-02
 3.7303000e-02
 2.9021188e-02
 2.0658422e-02
 1.2233811e-02
 3.7689760e-03
-4.7108600e-03
-1.3172208e-02
-2.1591030e-02
-2.9946200e-02
-3.8214745e-02
-4.6335750e-02
-5.4315381e-02
-6.2128929e-02
-6.9767937e-02
-7.7149222e-02
-8.4273549e-02
-9.1146400e-02
-9.7747989e-02
-1.0404329e-01
-1.0994778e-01
-1.1552341e-01
-1.2074457e-01
-1.2562490e-01
-1.3002922e-01
-1.3401200e-01
-1.3759816e-01
-1.4078238e-01
-1.4349851e-01
-1.4568292e-01
-1.4744391e-01
-1.4876119e-01
-1.4963688e-01
-1.4994000e-01
-1.4978064e-01
-1.4917404e-01
-1.4812860e-01
-1.4657196e-01
-1.4449589e-01
-1.4199834e-01
-1.3907022e-01
-1.3572000e-01
-1.3185321e-01
-1.2758899e-01
-1.2293678e-01
-1.1793017e-01
-1.1250263e-01
-1.0668263e-01
-1.0055375e-01
-9.4124800e-02
-8.7403038e-02
-8.0342265e-02
-7.3052067e-02
-6.5539781e-02
-5.7833648e-02
-4.9912312e-02
-4.1828660e-02
-3.3624600e-02
-2.5318471e-02
-1.6928088e-02
-8.4734937e-03
-4.1828520e-15
 8.4734937e-03
 1.6928088e-02
 2.5318471e-02
 3.3624600e-02
 4.1828660e-02
 4.9912312e-02
 5.7833648e-02
 6.5539781e-02
 7.3052067e-02
 8.0342265e-02
 8.7403038e-02
 9.4124800e-02
 1.0055375e-01
 1.0668263e-01
 1.1250263e-01
 1.1793017e-01
 1.2293678e-01
 1.2758899e-01
 1.3185321e-01
 1.3572000e-01
 1.3907022e-01
 1.4199834e-01
 1.4449589e-01
 1.4657196e-01
 1.4812860e-01
 1.4917404e-01
 1.4978064e-01
 1.4994000e-01
 1.4963688e-01
 1.4876119e-01
 1.4744391e-01
 1.4568292e-01
 1.4349851e-01
 1.4078238e-01
 1.3759816e-01
 1.3401200e-01
 1.3002922e-01
 1.2562490e-01
 1.2074457e-01
 1.1552341e-01
 1.0994778e-01
 1.0404329e-01
 9.7747989e-02
 9.1146400e-02
 8.4273549e-02
 7.7149222e-02
 6.9767937e-02
 6.2128929e-02
 5.4315381e-02
 4.6335750e-02
 3.8214745e-02
 2.9946200e-02
 2.1591030e-02
 1.3172208e-02
 4.7108600e-03
-3.7689760e-03
-1.2233811e-02
-2.0658422e-02
-2.9021188e-02
-3.7303000e-02
-4.5440181e-02
-5.3436469e-02
-6.1269486e-02
-6.8929158e-02
-7.6343532e-02
-8.3493548e-02
-9.0396245e-02
-9.7027200e-02
-1.0336439e-01
-1.0930766e-01
-1.1492113e-01
-1.2018164e-01
-1.2510246e-01
-1.2956371e-01
-1.3358839e-01
-1.3722000e-01
-1.4044769e-01
-1.4322647e-01
-1.4546063e-01
-1.4727015e-01
-1.4863617e-01
-1.4956579e-01
-1.4993182e-01
-1.4982000e-01
-1.4926378e-01
-1.4826606e-01
-1.4677482e-01
-1.4474671e-01
-1.4229745e-01
-1.3941569e-01
-1.3611752e-01
-1.3230400e-01
-1.2808193e-01
-1.2347237e-01
-1.1850357e-01
-1.1312925e-01
-1.0734413e-01
-1.0125014e-01
-9.4852631e-02
-8.8168000e-02
-8.1138786e-02
-7.3873345e-02
-6.6384670e-02
-5.8699421e-02
-5.0802711e-02
-4.2732772e-02
-3.4541703e-02
-2.6245600e-02
-1.7864538e-02
-9.4141540e-03
-9.4196213e-04
 7.5326427e-03
 1.5990761e-02
 2.4390354e-02
 3.2706243e-02
 4.0923000e-02
 4.9020065e-02
 5.6965081e-02
 6.4692545e-02
 7.2228003e-02
 7.9543182e-02
 8.6633282e-02
 9.3393783e-02
 9.9853600e-02
 1.0601727e-01
 1.1187127e-01
 1.1735150e-01
 1.2239682e-01
 1.2709118e-01
 1.3139799e-01
 1.3531511e-01
 1.3872000e-01
 1.4169385e-01
 1.4423990e-01
 1.4636261e-01
 1.4798494e-01
 1.4907885e-01
 1.4973566e-01
 1.4994316e-01
 1.4970000e-01
 1.4888111e-01
 1.4761214e-01
 1.4590010e-01
 1.4376367e-01
 1.4111160e-01
 1.3797128e-01
 1.3443063e-01
 1.3049000e-01
 1.2614090e-01
 1.2130353e-01
 1.1612126e-01
 1.1058398e-01
 1.0471696e-01
 9.8465402e-02
 9.1893092e-02
 8.5050400e-02
 7.7951911e-02
 7.0603362e-02
 6.2986280e-02
 5.5192228e-02
 4.7229659e-02
 3.9124417e-02
 3.0870377e-02
 2.2522800e-02
 1.4110091e-02
 5.6525040e-03
-2.8269000e-03
-1.1294922e-02
-1.9725017e-02
-2.8095362e-02
-3.6389150e-02
-4.4543000e-02
-5.2555529e-02
-6.0407911e-02
-6.8087309e-02
-7.5534640e-02
-8.2710474e-02
-8.9642644e-02
-9.6303308e-02
-1.0268000e-01
-1.0866370e-01
-1.1431446e-01
-1.1961463e-01
-1.2457404e-01
-1.2909307e-01
-1.3315987e-01
-1.3683674e-01
-1.4010800e-01
-1.4294711e-01
-1.4523332e-01
-1.4709087e-01
-1.4850598e-01
-1.4948716e-01
-1.4991827e-01
-1.4985376e-01
-1.4934800e-01
-1.4839772e-01
-1.4697074e-01
-1.4499244e-01
-1.4259119e-01
-1.3975633e-01
-1.3650789e-01
-1.3275036e-01
-1.2857000e-01
-1.2400349e-01
-1.1907208e-01
-1.1375071e-01
-1.0800185e-01
-1.0194276e-01
-9.5577256e-02
-8.8927930e-02
-8.1932800e-02
-7.4691801e-02
-6.7227147e-02
-5.9562541e-02
-5.1691034e-02
-4.3635359e-02
-3.5457512e-02
-2.7171748e-02
-1.8800000e-02
-1.0354618e-02
-1.8838834e-03
 6.5916063e-03
 1.5052669e-02
 2.3461233e-02
 3.1786668e-02
 4.0015780e-02
 4.8126200e-02
 5.6093579e-02
 6.3843026e-02
 7.1401189e-02
 7.8741480e-02
 8.5859066e-02
 9.2659385e-02
 9.9149743e-02
 1.0534800e-01
 1.1123559e-01
 1.1676718e-01
 1.2185264e-01
 1.2658854e-01
 1.3093828e-01
 1.3490312e-01
 1.3836504e-01
 1.4138400e-01
 1.4397863e-01
 1.4614720e-01
 1.4783466e-01
 1.4897830e-01
 1.4968508e-01
 1.4994130e-01
 1.4975486e-01
 1.4899600e-01
 1.4777484e-01
 1.4611207e-01
 1.4402236e-01
 1.4143492e-01
 1.3833943e-01
 1.3484425e-01
 1.3094634e-01
 1.2665000e-01
 1.2185864e-01
 1.1671466e-01
 1.1121619e-01
 1.0538567e-01
 9.9179100e-02
 9.2636363e-02
 8.5824029e-02
 7.8751800e-02
 7.1435144e-02
 6.3841582e-02
 5.6066971e-02
 4.8121859e-02
 4.0032089e-02
 3.1793582e-02
 2.3453701e-02
 1.5047440e-02
 6.5938600e-03
-1.8846800e-03
-1.0355563e-02
-1.8790856e-02
-2.7168712e-02
-3.5473322e-02
-4.3644235e-02
-5.1672600e-02
-5.9544163e-02
-6.7242675e-02
-7.4722342e-02
-8.1924408e-02
-8.8885628e-02
-9.5576323e-02
-1.0198996e-01
-1.0801600e-01
-1.1370340e-01
-1.1904342e-01
-1.2404012e-01
-1.2861695e-01
-1.3272652e-01
-1.3644838e-01
-1.3976367e-01
-1.4266000e-01
-1.4500107e-01
-1.4690608e-01
-1.4837055e-01
-1.4940142e-01
-1.4989893e-01
-1.4988199e-01
-1.4942663e-01
-1.4852400e-01
-1.4715928e-01
-1.4523317e-01
-1.4287952e-01
-1.4009204e-01
-1.3689148e-01
-1.3319198e-01
-1.2905318e-01
-1.2453000e-01
-1.1963609e-01
-1.1436660e-01
-1.0865583e-01
-1.0263156e-01
-9.6298603e-02
-8.9682981e-02
-8.2724296e-02
-7.5507400e-02
-6.8067145e-02
-6.0423150e-02
-5.2577053e-02
-4.4536443e-02
-3.6371990e-02
-2.8096887e-02
-1.9734383e-02
-1.1294880e-02
-2.8257230e-03
 5.6503901e-03
 1.4113923e-02
 2.2531091e-02
 3.0865910e-02
 3.9107029e-02
 4.7230903e-02
 5.5219000e-02
 6.2991289e-02
 7.0571660e-02
 7.7937107e-02
 8.5080725e-02
 9.1921355e-02
 9.8442241e-02
 1.0467477e-01
 1.1059600e-01
 1.1617681e-01
 1.2130436e-01
 1.2608108e-01
 1.3047402e-01
 1.3448442e-01
 1.3800506e-01
 1.4106882e-01
 1.4371200e-01
 1.4592619e-01
 1.4767735e-01
 1.4887246e-01
 1.4962888e-01
 1.4993434e-01
 1.4980175e-01
 1.4910586e-01
 1.4793200e-01
 1.4631873e-01
 1.4427503e-01
 1.4175187e-01
 1.3870267e-01
 1.3525285e-01
 1.3139824e-01
 1.2715186e-01
 1.2241000e-01
 1.1730358e-01
 1.1184431e-01
 1.0604966e-01
 9.9888743e-02
 9.3376266e-02
 8.6594397e-02
 7.9549046e-02
 7.2263000e-02
 6.4694875e-02
 5.6939573e-02
 4.9012302e-02
 4.0937835e-02
 3.2715646e-02
 2.4383734e-02
 1.5984229e-02
 7.5348800e-03
-9.4236399e-04
-9.4157553e-03
-1.7855977e-02
-2.6241230e-02
-3.4555684e-02
-4.2743835e-02
-5.0787721e-02
-5.8678200e-02
-6.6395544e-02
-7.3906438e-02
-8.1135429e-02
-8.8125227e-02
-9.4846191e-02
-1.0129451e-01
-1.0736457e-01
-1.1308800e-01
-1.1846792e-01
-1.2350116e-01
-1.2813496e-01
-1.3228841e-01
-1.3605493e-01
-1.3941472e-01
-1.4236486e-01
-1.4476400e-01
-1.4671579e-01
-1.4822979e-01
-1.4930900e-01
-1.4987335e-01
-1.4990477e-01
-1.4949965e-01
-1.4864523e-01
-1.4734000e-01
-1.4546900e-01
-1.4316244e-01
-1.4042275e-01
-1.3726864e-01
-1.3362845e-01
-1.2953153e-01
-1.2505179e-01
-1.2019600e-01
-1.1497650e-01
-1.0930614e-01
-1.0331652e-01
-9.7016598e-02
-9.0433403e-02
-8.3513006e-02
-7.6320122e-02
-6.8904600e-02
-6.1281389e-02
-5.3460539e-02
-4.5436046e-02
-3.7285095e-02
-2.9020985e-02
-2.0667682e-02
-1.2234917e-02
-3.7674400e-03
 4.7089995e-03
 1.3174636e-02
 2.1599912e-02
 2.9944004e-02
 3.8196788e-02
 4.6334192e-02
 5.4341264e-02
 6.2137400e-02
 6.9739452e-02
 7.7130005e-02
 8.4298593e-02
 9.1179444e-02
 9.7731169e-02
 1.0399760e-01
 1.0995285e-01
 1.1558000e-01
 1.2075210e-01
 1.2556882e-01
 1.3000512e-01
 1.3405940e-01
 1.3763971e-01
 1.4074837e-01
 1.4343994e-01
 1.4570000e-01
 1.4751260e-01
 1.4876141e-01
 1.4956707e-01
 1.4992219e-01
 1.4984110e-01
 1.4921034e-01
 1.4808363e-01
 1.4652000e-01
 1.4452210e-01
 1.4206200e-01
 1.3906107e-01
 1.3565642e-01
 1.3184562e-01
 1.2764672e-01
 1.2295763e-01
 1.1788800e-01
 1.1246828e-01
 1.0670921e-01
 1.0059399e-01
 9.4112857e-02
 8.7361473e-02
 8.0343615e-02
 7.3086724e-02
 6.5546200e-02
 5.7809995e-02
 4.9900939e-02
 4.1841725e-02
 3.3636402e-02
 2.5312907e-02
 1.6920421e-02
 8.4755204e-03
-3.3084000e-16
-8.4755204e-03
-1.6920421e-02
-2.5312907e-02
-3.3636402e-02
-4.1841725e-02
-4.9900939e-02
-5.7809995e-02
-6.5546200e-02
-7.3086724e-02
-8.0343615e-02
-8.7361473e-02
-9.4112857e-02
-1.0059399e-01
-1.0670921e-01
-1.1246828e-01
-1.1788800e-01
-1.2295763e-01
-1.2764672e-01
-1.3184562e-01
-1.3565642e-01
-1.3906107e-01
-1.4206200e-01
-1.4452210e-01
-1.4652000e-01
-1.4808363e-01
-1.4921034e-01
-1.4984110e-01
-1.4992219e-01
-1.4956707e-01
-1.4876141e-01
-1.4751260e-01
-1.4570000e-01
-1.4343994e-01
-1.4074837e-01
-1.3763971e-01
-1.3405940e-01
-1.3000512e-01
-1.2556882e-01
-1.2075210e-01
-1.1558000e-01
-1.0995285e-01
-1.0399760e-01
-9.7731169e-02
-9.1179444e-02
-8.4298593e-02
-7.7130005e-02
-6.9739452e-02
-6.2137400e-02
-5.4341264e-02
-4.6334192e-02
-3.8196788e-02
-2.9944004e-02
-2.1599912e-02
-1.3174636e-02
-4.7089995e-03
 3.7674400e-03
 1.2234917e-02
 2.0667682e-02
 2.9020985e-02
 3.7285095e-02
 4.5436046e-02
 5.3460539e-02
 6.1281389e-02
 6.8904600e-02
 7.6320122e-02
 8.3513006e-02
 9.0433403e-02
 9.7016598e-02
 1.0331652e-01
 1.0930614e-01
 1.1497650e-01
 1.2019600e-01
 1.2505179e-01
 1.2953153e-01
 1.3362845e-01
 1.3726864e-01
 1.4042275e-01
 1.4316244e-01
 1.4546900e-01
 1.4734000e-01
 1.4864523e-01
 1.4949965e-01
 1.4990477e-01
 1.4987335e-01
 1.4930900e-01
 1.4822979e-01
 1.4671579e-01
 1.4476400e-01
 1.4236486e-01
 1.3941472e-01
 1.3605493e-01
 1.3228841e-01
 1.2813496e-01
 1.2350116e-01
 1.1846792e-01
 1.1308800e-01
 1.0736457e-01
 1.0129451e-01
 9.4846191e-02
 8.8125227e-02
 8.1135429e-02
 7.3906438e-02
 6.6395544e-02
 5.8678200e-02
 5.0787721e-02
 4.2743835e-02
 3.4555684e-02
 2.6241230e-02
 1.7855977e-02
 9.4157553e-03
 9.4236399e-04
-7.5348800e-03
-1.5984229e-02
-2.4383734e-02
-3.2715646e-02
-4.0937835e-02
-4.9012302e-02
-5.6939573e-02
-6.4694875e-02
-7.2263000e-02
-7.9549046e-02
-8.6594397e-02
-9.3376266e-02
-9.9888743e-02
-1.0604966e-01
-1.1184431e-01
-1.1730358e-01
-1.2241000e-01
-1.2715186e-01
-1.3139824e-01
-1.3525285e-01
-1.3870267e-01
-1.4175187e-01
-1.4427503e-01
-1.4631873e-01
-1.4793200e-01
-1.4910586e-01
-1.4980175e-01
-1.4993434e-01
-1.4962888e-01
-1.4887246e-01
-1.4767735e-01
-1.4592619e-01
-1.4371200e-01
-1.4106882e-01
-1.3800506e-01
-1.3448442e-01
-1.3047402e-01
-1.2608108e-01
-1.2130436e-01
-1.1617681e-01
-1.1059600e-01
-1.0467477e-01
-9.8442241e-02
-9.1921355e-02
-8.5080725e-02
-7.7937108e-02
-7.0571657e-02
-6.2991296e-02
-5.5219000e-02
-4.7230757e-02
-3.9108201e-02
-3.0859337e-02
-2.2561670e-02
-1.3991490e-02
-7.0068012e-03
-4.4794229e-03
-6.0419400e-03
-7.7193688e-03
-9.1256013e-03
-1.0472637e-02
-1.1794651e-02
-1.3088554e-02
-1.4455972e-02
-1.5951909e-02
-1.7639400e-02
-1.9553699e-02
-2.1737811e-02
-2.4526729e-02
-2.7726074e-02
-3.1383318e-02
-3.5649350e-02
-4.0890501e-02
-4.7216400e-02
-5.4597492e-02
-6.2998513e-02
-7.2552895e-02
-8.3359402e-02
-9.4875372e-02
-1.0694832e-01
-1.1947069e-01
-1.3212800e-01
-1.4439546e-01
-1.5602711e-01
-1.6670959e-01
-1.7555618e-01
-1.8167134e-01
-1.8484703e-01
-1.8442345e-01
-1.7991000e-01
-1.6932565e-01
-1.5339999e-01
-1.3172820e-01
-1.0444631e-01
-6.9555979e-02
-2.6979234e-02
 2.2204692e-02
 7.8389200e-02
 1.4179269e-01
 2.1423821e-01
 2.9258957e-01
 3.7599079e-01
 4.6327863e-01
 5.5336921e-01
 6.4398545e-01
 7.3359200e-01
 8.2083072e-01
 9.0351576e-01
 9.7748691e-01
 1.0424972e+00
 1.0961358e+00
 1.1371038e+00
 1.1587585e+00
 1.1641600e+00
 1.1543916e+00
 1.1300115e+00
 1.0901475e+00
 1.0340865e+00
 9.6706977e-01
 8.8976505e-01
 8.0371460e-01
 7.0951400e-01
 6.1170460e-01
 5.1275380e-01
 4.1462645e-01
 3.1937424e-01
 2.2881654e-01
 1.4343753e-01
 6.3921809e-02
-9.2081000e-03
-7.2734314e-02
-1.2860997e-01
-1.7652632e-01
-2.1675931e-01
-2.4767977e-01
-2.7014813e-01
-2.8589400e-01
-2.9503200e-01
-2.9789895e-01
-2.9389736e-01
-2.8588039e-01
-2.7413668e-01
-2.5951674e-01
-2.4201264e-01
-2.2273078e-01
-2.0258600e-01
-1.8198813e-01
-1.6135885e-01
-1.4154373e-01
-1.2273263e-01
-1.0545006e-01
-8.9874165e-02
-7.6228163e-02
-6.4211600e-02
-5.3675014e-02
-4.4494512e-02
-3.6703718e-02
-3.0293636e-02
-2.4793481e-02
-2.0257628e-02
-1.6581809e-02
-1.3610400e-02
-1.1189475e-02
-9.1454462e-03
-7.3691654e-03
-5.7843514e-03
-4.3149889e-03
-2.9064317e-03
-1.6216353e-03
-2.9848000e-04
 3.3454659e-04
 7.5108452e-03
 1.5990490e-02
 2.4391143e-02
 3.2716040e-02
 4.0924392e-02
 4.9009952e-02
 5.6948600e-02
 6.4717829e-02
 7.2235763e-02
 7.9538229e-02
 8.6597913e-02
 9.3412451e-02
 9.9878712e-02
 1.0601820e-01
 1.1184200e-01
 1.1732805e-01
 1.2244424e-01
 1.2710119e-01
 1.3138472e-01
 1.3526169e-01
 1.3875927e-01
 1.4172364e-01
 1.4423800e-01
 1.4631877e-01
 1.4796984e-01
 1.4913602e-01
 1.4974310e-01
 1.4992269e-01
 1.4964538e-01