Patient Number 0654821 Lead Number 1 Time Step .0012 Data Points 5001
0.0000000e+00
 -3.3010564e-60
  2.8978173e-74
  1.3534331e-58
 -3.4773808e-72
 -7.0345512e-57
  1.9287872e-70
  3.6566132e-55
 -1.8516357e-68
 -1.9007354e-53
  9.4196032e-67
  9.8801675e-52
 -5.1534345e-65
 -5.1357864e-50
  5.2273328e-63
  2.6696209e-48
 -2.7281699e-61
 -1.3876893e-46
  1.4019209e-59
  7.2133147e-45
 -7.2594012e-58
 -3.7495359e-43
  3.8107778e-56
  1.9490374e-41
 -2.0045735e-54
 -1.0131245e-39
  9.9426847e-53
  5.2662982e-38
 -1.0742376e-50
 -2.7374620e-36
  5.5832986e-49
  1.4229536e-34
 -2.9006878e-47
 -7.3966212e-33
  1.5156444e-45
  3.8448201e-31
 -7.7773186e-44
 -1.9985668e-29
  4.1142302e-42
  1.0388702e-27
 -2.1158898e-40
 -5.4001267e-26
  1.1134282e-38
  2.8070270e-24
 -5.6814933e-37
 -1.4591140e-22
  5.9472717e-35
  7.5845859e-21
 -1.5382788e-33
 -3.9425256e-19
  7.9832724e-32
  2.0493548e-17
 -4.1601369e-30
 -1.0652703e-15
  0.0000000e+00
  5.5373560e-14
 -2.2623390e-26
 -2.8783599e-12
  1.1726112e-24
  1.4961934e-10
 -6.1325185e-23
 -7.7773273e-09
  3.1767124e-21
  4.0427140e-07
 -1.6410484e-19
 -2.6014335e-05
 -6.0000000e-05
  1.0573412e-03
  5.8600000e-03
  1.1479274e-02
  1.7500000e-02
  2.3950429e-02
  3.0900000e-02
  3.8308418e-02
  4.6260000e-02
  5.4636817e-02
  6.3420000e-02
  7.2637100e-02
  8.2260000e-02
  9.2224008e-02
  1.0250000e-01
  1.1308198e-01
  1.2384000e-01
  1.3481797e-01
  1.4586000e-01
  1.5700092e-01
  1.6814000e-01
  1.7911412e-01
  1.8984000e-01
  2.0027228e-01
  2.1030000e-01
  2.1976212e-01
  2.2850000e-01
  2.3664502e-01
  2.4400000e-01
  2.5052675e-01
  2.5622000e-01
  2.6091905e-01
  2.6458000e-01
  2.6736275e-01
  2.6910000e-01
  2.6988023e-01
  2.6920000e-01
  2.6771545e-01
  2.6500000e-01
  2.6137367e-01
  2.5658000e-01
  2.5080846e-01
  2.4390000e-01
  2.3628620e-01
  2.2810000e-01
  2.1902650e-01
  2.0956000e-01
  1.9967572e-01
  1.8950000e-01
  1.7907354e-01
  1.6842000e-01
  1.5774023e-01
  1.4706000e-01
  1.3638682e-01
  1.2580000e-01
  1.1550246e-01
  1.0538000e-01
  9.5522834e-02
  8.5980000e-02
  7.6837690e-02
  6.8080000e-02
  5.9642260e-02
  5.1820000e-02
  4.4434770e-02
  3.7500000e-02
  3.1109697e-02
  2.5260000e-02
  1.9900974e-02
  1.4920000e-02
  1.0424669e-02
  6.2800000e-03
  2.5562553e-03
  3.0000000e-04
 -4.7442763e-05
  6.1062266e-19
  7.6841434e-07
  0.0000000e+00
 -1.4782668e-08
  2.3310347e-22
  2.8438729e-10
  0.0000000e+00
 -5.4710103e-12
  8.7350273e-26
  1.0525068e-13
 -1.7163998e-27
 -2.0248005e-15
  3.2311743e-29
  3.8952883e-17
 -6.2604001e-31
 -7.4937114e-19
  1.1990686e-32
  1.4416317e-20
 -2.2679751e-34
 -2.7733947e-22
  4.3911203e-36
  5.3354252e-24
 -8.3055729e-38
 -1.0264230e-25
  1.5422486e-39
  1.9746212e-27
 -3.1738347e-41
 -3.8000086e-29
  6.0611427e-43
  1.3832451e-30
 -5.4642120e-43
 -3.3928657e-29
  2.7624117e-41
  1.7629069e-27
 -1.4411561e-39
 -9.1637231e-26
  7.4930712e-38
  4.7633731e-24
 -3.8807488e-36
 -2.4760376e-22
  2.0214561e-34
  1.2870632e-20
 -1.0491850e-32
 -6.6902528e-19
  1.0930457e-30
  3.4776444e-17
 -2.8393944e-29
 -1.8077060e-15
  2.9520008e-27
  9.3965938e-14
 -7.6762361e-26
 -4.8844211e-12
  3.9863488e-24
  2.5389593e-10
 -2.0769248e-22
 -1.3197704e-08
  1.0776970e-20
  6.8602671e-07
 -5.6066263e-19
 -3.3160191e-05
  1.0000000e-04
 -1.0088561e-03
 -7.1557343e-18
 -8.8233395e-06
  1.3877788e-19
  1.6974240e-07
 -2.6454533e-21
 -3.2654851e-09
  5.0144350e-23
  6.2821032e-11
  0.0000000e+00
 -1.2085439e-12
  3.8050308e-26
  2.3249830e-14
 -7.2895291e-28
 -4.4727759e-16
  0.0000000e+00
  8.6046754e-18
  0.0000000e+00
 -1.6553577e-19
  5.2064820e-33
  3.1845583e-21
 -9.9223911e-35
 -6.1264777e-23
  1.9451892e-36
  1.2100745e-24
  0.0000000e+00
 -1.6590978e-24
  2.6734315e-36
  8.5063014e-23
 -1.3882103e-34
 -4.4216176e-21
  7.2328684e-33
  2.2983905e-19
  0.0000000e+00
 -1.1947209e-17
  1.9538507e-29
  6.2102503e-16
 -1.0152350e-27
 -3.2281355e-14
  5.2691405e-26
  1.6780094e-12
  0.0000000e+00
 -8.7224208e-11
  1.4264035e-22
  4.5339808e-09
 -7.4051008e-21
 -2.3567978e-07
  3.8545556e-19
  1.2250814e-05
  0.0000000e+00
 -9.1430667e-04
 -4.5000000e-03
 -6.8583038e-03
 -8.8000000e-03
 -1.0601397e-02
 -1.2380000e-02
 -1.4124078e-02
 -1.6120000e-02
 -1.8486550e-02
 -2.1200000e-02
 -2.4847838e-02
 -2.9300000e-02
 -3.4610873e-02
 -4.1500000e-02
 -5.0359271e-02
 -6.1040000e-02
 -7.3722054e-02
 -8.8420000e-02
 -1.0422894e-01
 -1.2090000e-01
 -1.3762288e-01
 -1.5354000e-01
 -1.6784614e-01
 -1.7856000e-01
 -1.8443296e-01
 -1.8414000e-01
 -1.7593512e-01
 -1.5740000e-01
 -1.2894845e-01
 -9.0100000e-02
 -3.6965325e-02
  2.8100000e-02
  1.0548783e-01
  1.9758000e-01
  3.0160316e-01
  4.1438000e-01
  5.3323771e-01
  6.5400000e-01
  7.7266840e-01
  8.8590000e-01
  9.8518557e-01
  1.0678600e+00
  1.1293495e+00
  1.1600400e+00
  1.1617373e+00
  1.1365600e+00
  1.0845503e+00
  1.0056600e+00
  9.0772812e-01
  7.9360000e-01
  6.6630249e-01
  5.3476000e-01
  4.0388468e-01
  2.7856000e-01
  1.6192414e-01
  5.5440000e-02
 -3.8549742e-02
 -1.1684000e-01
 -1.8137005e-01
 -2.3190000e-01
 -2.6572257e-01
 -2.8722000e-01
 -2.9721861e-01
 -2.9520000e-01
 -2.8472480e-01
 -2.6792000e-01
 -2.4614167e-01
 -2.2054000e-01
 -1.9347355e-01
 -1.6590000e-01
 -1.3939373e-01
 -1.1486000e-01
 -9.3187644e-02
 -7.4860000e-02
 -5.9348788e-02
 -4.6460000e-02
 -3.5925387e-02
 -2.7720000e-02
 -2.1221113e-02
 -1.6200000e-02
 -1.2501719e-02
 -9.5600000e-03
 -7.2045120e-03
 -5.1400000e-03
 -3.2086568e-03
 -1.4200000e-03
 -5.5334728e-05
  4.0000000e-05
 -3.9373273e-06
  1.2351231e-19
  7.5745855e-08
 -2.3852448e-21
 -1.4571902e-09
  4.5739779e-23
  2.8033259e-11
 -8.8409064e-25
 -5.3930065e-13
  1.6874484e-26
  1.0375005e-14
 -3.2311743e-28
 -1.9959316e-16
  6.3815692e-30
  3.8397506e-18
 -1.2116904e-31
 -7.3868686e-20
  2.3271397e-33
  1.4210774e-21
 -4.4989724e-35
 -2.7338526e-23
  8.5703883e-37
  5.2593545e-25
 -1.6550960e-38
 -1.0117886e-26
  3.2208545e-40
  1.9464675e-28
 -6.0978769e-42
 -3.7445921e-30
  2.3647640e-43
  7.2038038e-32
 -2.2779508e-45
 -1.3858596e-33
  4.3440252e-47
  2.6661009e-35
 -8.4077908e-49
 -5.1290147e-37
  3.2295551e-50
  9.8671403e-39
 -3.1004071e-52
 -1.8982293e-40
  6.0137206e-54
  3.6517919e-42
 -1.1484536e-55
 -7.0252758e-44
  2.2186035e-57
  1.3515147e-45
 -4.2567416e-59
 -2.6008213e-47
  8.3637325e-61
  9.1233975e-49
 -6.8851441e-61
 -2.1433454e-47
  3.4920575e-59
  1.1136273e-45
 -1.8199482e-57
 -5.7887184e-44
  9.4682168e-56
  3.0090200e-42
 -4.9112052e-54
 -1.5641115e-40
  2.5551631e-52
  8.1303708e-39
 -1.3282572e-50
 -4.2262287e-37
  6.9079635e-49
  2.1968259e-35
 -3.5890757e-47
 -1.1419268e-33
  1.8676506e-45
  5.9358228e-32
 -1.9385899e-43
 -3.0854859e-30
  5.0394729e-42
  1.6038591e-28
 -2.6257605e-40
 -8.3369818e-27
  1.3626331e-38
  4.3336267e-25
 -1.4167622e-36
 -2.2526522e-23
  0.0000000e+00
  1.1709458e-21
 -3.8284406e-33
 -6.0866653e-20
  1.9895072e-31
  3.1638950e-18
  0.0000000e+00
 -1.6446167e-16
  5.3702116e-28
  8.5488432e-15
 -2.7927685e-26
 -4.4437538e-13
  0.0000000e+00
  2.3098971e-11
 -7.5555339e-23
 -1.2007021e-09
  0.0000000e+00
  6.2413411e-08
 -2.0409022e-19
 -3.2442967e-06
  1.0602630e-17
  2.5114101e-04
  1.7000000e-03
  3.4339115e-03
  5.2800000e-03
  7.1979586e-03
  9.1600000e-03
  1.1352242e-02
  1.3700000e-02
  1.6182974e-02
  1.8800000e-02
  2.1580612e-02
  2.4540000e-02
  2.7712696e-02
  3.1040000e-02
  3.4611675e-02
  3.8340000e-02
  4.2235198e-02
  4.6520000e-02
  5.0973020e-02
  5.5600000e-02
  6.0637767e-02
  6.5800000e-02
  7.1248108e-02
  7.6940000e-02
  8.3010611e-02
  8.9300000e-02
  9.5930098e-02
  1.0278000e-01
  1.0998179e-01
  1.1740000e-01
  1.2522416e-01
  1.3322000e-01
  1.4148930e-01
  1.4998000e-01
  1.5882497e-01
  1.6796000e-01
  1.7735746e-01
  1.8684000e-01
  1.9656218e-01
  2.0660000e-01
  2.1679921e-01
  2.2704000e-01
  2.3746411e-01
  2.4812000e-01
  2.5872719e-01
  2.6948000e-01
  2.8019222e-01
  2.9100000e-01
  3.0179475e-01
  3.1250000e-01
  3.2306062e-01
  3.3358000e-01
  3.4397556e-01
  3.5412000e-01
  3.6407514e-01
  3.7378000e-01
  3.8320197e-01
  3.9224000e-01
  4.0087516e-01
  4.0930000e-01
  4.1702708e-01
  4.2436000e-01
  4.3122934e-01
  4.3756000e-01
  4.4326487e-01
  4.4850000e-01
  4.5314256e-01
  4.5706000e-01
  4.6044471e-01
  4.6320000e-01
  4.6524478e-01
  4.6670000e-01
  4.6739937e-01
  4.6944000e-01
  4.7348043e-01
  4.7704000e-01
  4.8004808e-01
  4.8228000e-01
  4.8387934e-01
  4.8480000e-01
  4.8498621e-01
  4.8416000e-01
  4.8301772e-01
  4.8096000e-01
  4.7833752e-01
  4.7510000e-01
  4.7130601e-01
  4.6676000e-01
  4.6174742e-01
  4.5610000e-01
  4.5003560e-01
  4.4352000e-01
  4.3653412e-01
  4.2898000e-01
  4.2106287e-01
  4.1276000e-01
  4.0406147e-01
  3.9498000e-01
  3.8557568e-01
  3.7590000e-01
  3.6601830e-01
  3.5582000e-01
  3.4532787e-01
  3.3468000e-01
  3.2388760e-01
  3.1294000e-01
  3.0178215e-01
  2.9056000e-01
  2.7927835e-01
  2.6790000e-01
  2.5659601e-01
  2.4524000e-01
  2.3396162e-01
  2.2268000e-01
  2.1151208e-01
  2.0048000e-01
  1.8963010e-01
  1.7896000e-01
  1.6852014e-01
  1.5830000e-01
  1.4835999e-01
  1.3864000e-01
  1.2927763e-01
  1.2004000e-01
  1.1121083e-01
  1.0258000e-01
  9.4164406e-02
  8.6020000e-02
  7.8177541e-02
  7.0600000e-02
  6.3328486e-02
  5.6280000e-02
  4.9428662e-02
  4.2800000e-02
  3.6526113e-02
  3.0520000e-02
  2.4623468e-02
  1.9000000e-02
  1.3611030e-02
  8.5000000e-03
  3.5104871e-03
  2.8000000e-04
 -8.3856894e-05
 -8.0000000e-05
 -1.2428577e-05
  4.6906923e-19
  1.4291013e-07
 -8.9771940e-21
 -2.7492888e-09
  1.7279472e-22
  5.2890505e-11
 -3.3246043e-24
 -1.0175015e-12
  0.0000000e+00
  1.9574579e-14
 -1.2304312e-27
 -3.7657353e-16
  2.3587572e-29
  7.2444788e-18
 -4.5690824e-31
 -1.3936846e-19
  8.7563560e-33
  2.6811546e-21
 -1.6824924e-34
 -5.1579748e-23
  3.2548216e-36
  9.9228534e-25
 -6.2291797e-38
 -1.9089473e-26
  0.0000000e+00
  3.6724111e-28
 -2.3069077e-41
 -7.0649427e-30
  4.4310627e-43
  1.3591457e-31
 -8.5378313e-45
 -2.6147090e-33
  1.6479270e-46
  5.0301475e-35
 -3.1529215e-48
 -9.6769406e-37
  6.0485734e-50
  1.8616389e-38
 -1.1674636e-51
 -3.5813997e-40
  2.2584862e-53
  6.8898561e-42
 -4.3014807e-55
 -1.3254627e-43
  8.3197632e-57
  2.5499101e-45
 -1.5956409e-58
 -4.9054880e-47
  3.0746674e-60
  9.4371222e-49
 -5.9243105e-62
 -1.8155029e-50
  1.1434791e-63
  3.4926438e-52
 -2.1999331e-65
 -6.7191084e-54
  4.2160321e-67
  1.2926145e-55
 -8.1305799e-69
 -2.4867170e-57
  1.5578666e-70
  4.7839180e-59
 -2.9992409e-72
 -9.2032470e-61
  5.7956346e-74
  1.7705102e-62
  0.0000000e+00
 -3.4060875e-64
  2.1334791e-77
  6.5525924e-66
 -4.1453609e-79
 -1.2605803e-67
  7.9074918e-81
  2.4250900e-69
 -1.5265103e-82
 -4.6653607e-71
  2.9386377e-84
  8.9751679e-73
 -5.6417231e-86
 -1.7266326e-74
  1.0938560e-87
  3.3216762e-76
 -2.0811414e-89
 -6.3902030e-78
  4.0058203e-91
  1.2293400e-79
 -7.7318222e-93
 -2.3649903e-81
  1.4803985e-94
  4.5497411e-83
 -2.8524518e-96
 -8.7504500e-85
  5.4120179e-98
  4.9291175e-87
  3.7857205e-98
  6.1873089e-85
 -2.0239823e-96
 -3.2178935e-83
  1.0515719e-94
  1.6726859e-81
 -5.4675028e-93
 -8.6947489e-80
  2.8423651e-91
  4.5195967e-78
 -1.4766553e-89
 -2.3493208e-76
  7.6791103e-88
  1.2211949e-74
 -3.9906440e-86
 -6.3478640e-73
  2.0754952e-84
  3.2996681e-71
 -1.0776762e-82
 -1.7151926e-69
  5.6033891e-81
  8.9157019e-68
 -2.9147069e-79
 -4.6344498e-66
  1.5137476e-77
  2.4090223e-64
 -7.8728694e-76
 -1.2522282e-62
  4.0934499e-74
  6.5091774e-61
 -2.1280846e-72
 -3.3835200e-59
  1.1052275e-70
  1.7587795e-57
 -5.7455603e-69
 -9.1422699e-56
  2.9851691e-67
  4.7522216e-54
 -1.5523354e-65
 -2.4702410e-52
  8.0704729e-64
  1.2840501e-50
 -4.1958681e-62
 -6.6745902e-49
  2.1820381e-60
  3.4695029e-47
 -1.1336442e-58
 -1.8034740e-45
  5.8931656e-57
  9.3745955e-44
 -3.0629779e-55
 -4.8729862e-42
  1.5932183e-53
  2.5330154e-40
 -8.2775523e-52
 -1.3166807e-38
  8.6058747e-50
  6.8442065e-37
 -2.2349616e-48
 -3.5576707e-35
  1.1616764e-46
  1.8493044e-33
 -6.0401569e-45
 -9.6128250e-32
  3.1410610e-43
  4.9968197e-30
 -1.6323759e-41
 -2.5973850e-28
  8.4841305e-40
  1.3501405e-26
 -4.4123356e-38
 -7.0181332e-25
  4.5873244e-36
  3.6480791e-23
 -1.1933062e-34
 -1.8962993e-21
  6.1974885e-33
  9.8571084e-20
 -3.2209191e-31
 -5.1238001e-18
  1.6751619e-29
  2.6633903e-16
 -8.7080147e-28
 -1.3844506e-14
  4.5267459e-26
  7.1964797e-13
 -2.3518399e-24
 -3.7407850e-11
  1.2218450e-22
  1.9444885e-09
 -6.3561352e-21
 -1.0107600e-07
  3.3037809e-19
  5.2540073e-06
 -8.0000000e-05
  4.7689270e-04
  4.0200000e-03
  9.5713258e-03
  1.5460000e-02
  2.1754163e-02
  2.8500000e-02
  3.5792176e-02
  4.3580000e-02
  5.1772707e-02
  6.0440000e-02
  6.9537057e-02
  7.9020000e-02
  8.8835343e-02
  9.9060000e-02
  1.0954260e-01
  1.2020000e-01
  1.3114693e-01
  1.4218000e-01
  1.5327473e-01
  1.6444000e-01
  1.7547453e-01
  1.8628000e-01
  1.9686955e-01
  2.0698000e-01
  2.1667896e-01
  2.2570000e-01
  2.3398715e-01
  2.4160000e-01
  2.4849408e-01
  2.5444000e-01
  2.5941327e-01
  2.6346000e-01
  2.6661111e-01
  2.6858000e-01
  2.6977159e-01
  2.6960000e-01
  2.6827109e-01
  2.6600000e-01
  2.6277400e-01
  2.5830000e-01
  2.5280070e-01
  2.4630000e-01
  2.3893969e-01
  2.3086000e-01
  2.2209791e-01
  2.1280000e-01
  2.0300651e-01
  1.9290000e-01
  1.8260087e-01
  1.7198000e-01
  1.6130081e-01
  1.5062000e-01
  1.3993682e-01
  1.2932000e-01
  1.1892196e-01
  1.0870000e-01
  9.8786434e-02
  8.9140000e-02
  7.9810991e-02
  7.0960000e-02
  6.2437058e-02
  5.4340000e-02
  4.6836997e-02
  3.9780000e-02
  3.3194096e-02
  2.7100000e-02
  2.1652506e-02
  1.6560000e-02
  1.1855587e-02
  7.6000000e-03
  3.8144822e-03
  7.0000000e-04
 -1.0366004e-04
  5.5192667e-18
  8.3992690e-07
  0.0000000e+00
 -1.6158418e-08
  0.0000000e+00
  3.1085382e-10
 -3.9048219e-23
 -5.9801705e-12
  7.5306523e-25
  1.1504584e-13
 -1.4475661e-26
 -2.2132388e-15
  2.7788099e-28
  4.2578037e-17
  0.0000000e+00
 -8.1911144e-19
  0.0000000e+00
  1.5757973e-20
 -1.9820130e-33
 -3.0315009e-22
  3.8210450e-35
  5.8319671e-24
 -7.3305709e-37
 -1.1219472e-25
  0.0000000e+00
  2.1583894e-27
  0.0000000e+00
 -4.1527941e-29
  5.2529904e-42
  1.0635276e-30
 -1.8309702e-42
 -1.3775494e-29
  8.9943685e-41
  7.1526216e-28
  0.0000000e+00
 -3.7179857e-26
  0.0000000e+00
  1.9326373e-24
 -1.2631693e-35
 -1.0045996e-22
  6.5658804e-34
  5.2219852e-21
 -3.4128095e-32
 -2.7144277e-19
  1.7743059e-30
  1.4109802e-17
  0.0000000e+00
 -7.3343827e-16
  4.7937701e-27
  3.8124680e-14
 -2.4914680e-25
 -1.9817499e-12
  1.2951663e-23
  1.0301287e-10
 -6.7330649e-22
 -5.3546876e-09
  0.0000000e+00
  2.7834074e-07
  0.0000000e+00
 -1.4468364e-05
  6.0000000e-05
 -9.8042342e-04
 -2.1922568e-16
 -3.3513871e-05
  4.2188475e-18
  6.4473605e-07
  0.0000000e+00
 -1.2403359e-08
  0.0000000e+00
  2.3861441e-10
 -2.9984966e-23
 -4.5904370e-12
  5.7836468e-25
  8.8310305e-14
 -1.1104900e-26
 -1.6989036e-15
  0.0000000e+00
  3.2683315e-17
  0.0000000e+00
 -6.2875791e-19
  7.9201635e-32
  1.2095973e-20
 -1.5185572e-33
 -2.3270097e-22
  2.9197098e-35
  4.4773758e-24
 -5.6935304e-37
 -1.2256773e-25
  0.0000000e+00
  1.8961463e-24
 -1.2378915e-35
 -9.8477039e-23
  6.4379986e-34
  5.1189099e-21
 -3.3467424e-32
 -2.6608484e-19
  1.7392805e-30
  1.3831293e-17
  0.0000000e+00
 -7.1896113e-16
  0.0000000e+00
  3.7372148e-14
 -2.4414236e-25
 -1.9426327e-12
  1.2697553e-23
  1.0097953e-10
 -6.6000807e-22
 -5.2489929e-09
  0.0000000e+00
  2.7284665e-07
  0.0000000e+00
 -1.0668278e-04
 -3.7000000e-03
 -6.0452685e-03
 -8.2000000e-03
 -9.9968577e-03
 -1.1800000e-02
 -1.3525632e-02
 -1.5440000e-02
 -1.7610297e-02
 -2.0280000e-02
 -2.3536421e-02
 -2.7700000e-02
 -3.2720837e-02
 -3.9100000e-02
 -4.7072561e-02
 -5.7240000e-02
 -6.9375997e-02
 -8.3340000e-02
 -9.8800582e-02
 -1.1530000e-01
 -1.3207374e-01
 -1.4850000e-01
 -1.6325727e-01
 -1.7528000e-01
 -1.8344812e-01
 -1.8516000e-01
 -1.7915282e-01
 -1.6480000e-01
 -1.4029502e-01
 -1.0366000e-01
 -5.5756256e-02
  3.9000000e-03
  7.8655322e-02
  1.6594000e-01
  2.6516953e-01
  3.7592000e-01
  4.9336937e-01
  6.1380000e-01
  7.3386339e-01
  8.4858000e-01
  9.5331940e-01
  1.0443000e+00
  1.1108651e+00
  1.1519200e+00
  1.1659943e+00
  1.1482800e+00
  1.1034058e+00
  1.0346200e+00
  9.4347991e-01
  8.3248000e-01
  7.0949885e-01
  5.7880000e-01
  4.4721497e-01
  3.1988000e-01
  1.9911783e-01
  8.9480000e-02
 -8.0019555e-03
 -9.2480000e-02
 -1.6238614e-01
 -2.1586000e-01
 -2.5564365e-01
 -2.8250000e-01
 -2.9477641e-01
 -2.9660000e-01
 -2.8944810e-01
 -2.7418000e-01
 -2.5365468e-01
 -2.2938000e-01
 -2.0261867e-01
 -1.7510000e-01
 -1.4811429e-01
 -1.2250000e-01
 -1.0013812e-01
 -8.0780000e-02
 -6.4033368e-02
 -5.0460000e-02
 -3.9296731e-02
 -3.0240000e-02
 -2.3091636e-02
 -1.7800000e-02
 -1.3653174e-02
 -1.0400000e-02
 -7.9558184e-03
 -5.8200000e-03
 -3.8292667e-03
 -2.0000000e-03
 -4.3481240e-04
  8.0000000e-05
 -1.0488257e-05
  1.3156143e-18
  2.0177190e-07
 -2.5413699e-20
 -3.8816649e-09
  0.0000000e+00
  7.4675028e-11
 -9.3808899e-24
 -1.4365897e-12
  1.8032537e-25
  2.7636950e-14
 -3.4741586e-27
 -5.3167650e-16
  6.6723749e-29
  1.0228332e-17
  0.0000000e+00
 -1.9677149e-19
  2.4730789e-32
  3.7854677e-21
 -4.7454914e-34
 -7.2824397e-23
  9.1481672e-36
  1.4009875e-24
 -1.7604203e-37
 -2.6952038e-26
  0.0000000e+00
  5.1850025e-28
 -6.5239936e-41
 -9.9748489e-30
  1.2558504e-42
  1.9189501e-31
 -2.4250311e-44
 -3.6916544e-33
  4.6298901e-46
  7.1019629e-35
 -8.9157615e-48
 -1.3662676e-36
  0.0000000e+00
  2.6284100e-38
 -3.3099518e-51
 -5.0565054e-40
  6.3611800e-53
  9.7276476e-42
 -1.2215370e-54
 -1.8713938e-43
  2.3556349e-56
  3.6001662e-45
  0.0000000e+00
 -6.9260526e-47
  8.7301437e-60
  1.3811860e-48
 -4.8589303e-61
 -2.5611462e-48
  1.6578113e-59
  1.3179842e-46
 -8.6128921e-58
 -6.8509566e-45
  0.0000000e+00
  3.5611794e-43
 -2.3269236e-54
 -1.8511282e-41
  1.2097601e-52
  9.6223055e-40
 -6.2884808e-51
 -5.0017477e-38
  3.2678718e-49
  2.5999466e-36
  0.0000000e+00
 -1.3514721e-34
  8.8295816e-46
  7.0250547e-33
 -4.5908780e-44
 -3.6516770e-31
  2.3868619e-42
  1.8981695e-29
 -1.2403302e-40
 -9.8668299e-28
  6.4487620e-39
  5.1288534e-26
  0.0000000e+00
 -2.6660171e-24
  1.7420036e-35
  1.3858160e-22
 -9.0549522e-34
 -7.2035771e-21
  4.7104857e-32
  3.7444743e-19
 -2.4479932e-30
 -1.9464063e-17
  0.0000000e+00
  1.0117568e-15
 -6.6096901e-27
 -5.2591890e-14
  3.4365219e-25
  2.7337665e-12
 -1.7867101e-23
 -1.4210327e-10
  9.2851752e-22
  7.3866362e-09
  0.0000000e+00
 -3.8396298e-07
  2.5097979e-18
  4.7458688e-05
  1.1000000e-03
  2.8750322e-03
  4.6400000e-03
  6.5633682e-03
  8.4800000e-03
  1.0612322e-02
  1.2900000e-02
  1.5330876e-02
  1.7920000e-02
  2.0644652e-02
  2.3500000e-02
  2.6644740e-02
  2.9920000e-02
  3.3386382e-02
  3.7080000e-02
  4.0925911e-02
  4.5040000e-02
  4.9476271e-02
  5.4040000e-02
  5.8958013e-02
  6.4000000e-02
  6.9424555e-02
  7.5020000e-02
  8.0945142e-02
  8.7160000e-02
  9.3710562e-02
  1.0046000e-01
  1.0752062e-01
  1.1492000e-01
  1.2259992e-01
  1.3050000e-01
  1.3870866e-01
  1.4714000e-01
  1.5581702e-01
  1.6488000e-01
  1.7421116e-01
  1.8368000e-01
  1.9325278e-01
  2.0324000e-01
  2.1339933e-01
  2.2360000e-01
  2.3396692e-01
  2.4456000e-01
  2.5517087e-01
  2.6590000e-01
  2.7661290e-01
  2.8740000e-01
  2.9820358e-01
  3.0894000e-01
  3.1954077e-01
  3.3010000e-01
  3.4051895e-01
  3.5076000e-01
  3.6079379e-01
  3.7058000e-01
  3.8007642e-01
  3.8928000e-01
  3.9805721e-01
  4.0650000e-01
  4.1449626e-01
  4.2200000e-01
  4.2898723e-01
  4.3548000e-01
  4.4145512e-01
  4.4682000e-01
  4.5163662e-01
  4.5582000e-01
  4.5942082e-01
  4.6232000e-01
  4.6462812e-01
  4.6630000e-01
  4.6728448e-01
  4.6852000e-01
  4.7212154e-01
  4.7592000e-01
  4.7911307e-01
  4.8156000e-01
  4.8349874e-01
  4.8452000e-01
  4.8508760e-01
  4.8440000e-01
  4.8350612e-01
  4.8168000e-01
  4.7932405e-01
  4.7624000e-01
  4.7262332e-01
  4.6832000e-01
  4.6352341e-01
  4.5802000e-01
  4.5208677e-01
  4.4580000e-01
  4.3889189e-01
  4.3154000e-01
  4.2376219e-01
  4.1558000e-01
  4.0697654e-01
  3.9806000e-01
  3.8875767e-01
  3.7914000e-01
  3.6932982e-01
  3.5930000e-01
  3.4883399e-01
  3.3824000e-01
  3.2750783e-01
  3.1662000e-01
  3.0550122e-01
  2.9432000e-01
  2.8304376e-01
  2.7170000e-01
  2.6037565e-01
  2.4900000e-01
  2.3772224e-01
  2.2644000e-01
  2.1521014e-01
  2.0414000e-01
  1.9322533e-01
  1.8252000e-01
  1.7193747e-01
  1.6170000e-01
  1.5166394e-01
  1.4180000e-01
  1.3237263e-01
  1.2312000e-01
  1.1409690e-01
  1.0544000e-01
  9.6938791e-02
  8.8740000e-02
  8.0710997e-02
  7.3120000e-02
  6.5724373e-02
  5.8600000e-02
  5.1686626e-02
  4.5000000e-02
  3.8556064e-02
  3.2500000e-02
  2.6598044e-02
  2.0800000e-02
  1.5390673e-02
  1.0180000e-02
  5.2044810e-03
  6.0000000e-04
 -6.8685658e-05
 -4.0000000e-05
 -4.5326807e-05
  4.4408921e-18
  6.7961310e-07
 -8.5521867e-20
 -1.3074320e-08
  1.6398558e-21
  2.5152228e-10
 -3.1594329e-23
 -4.8387570e-12
  6.0880493e-25
  9.3087458e-14
  0.0000000e+00
 -1.7908059e-15
  2.2553596e-28
  3.4451321e-17
 -4.3317930e-30
 -6.6277061e-19
  8.3303712e-32
  1.2750306e-20
 -1.6048389e-33
 -2.4528893e-22
  3.0891916e-35
  4.7188407e-24
 -5.9222346e-37
 -9.0780521e-26
  1.1416401e-38
  1.7464254e-27
 -2.1981744e-40
 -3.3597533e-29
  4.2336164e-42
  6.4634552e-31
 -8.1073524e-44
 -1.2434322e-32
  1.5604860e-45
  2.3921007e-34
 -3.0197982e-47
 -4.6018962e-36
  5.7913038e-49
  8.8530756e-38
 -1.1118701e-50
 -1.7031446e-39
  2.1382118e-52
  3.2764903e-41
 -4.1260805e-54
 -6.3032749e-43
  7.9217196e-56
  1.2126169e-44
 -1.5252899e-57
 -2.3328186e-46
  2.9312891e-59
  4.4878499e-48
 -5.6355626e-61
 -8.6336746e-50
  0.0000000e+00
  1.6609365e-51
 -2.0905442e-64
 -3.1952908e-53
  4.0185243e-66
  6.1470642e-55
 -7.7507572e-68
 -1.1825652e-56
  1.4873917e-69
  2.2750056e-58
 -2.8630435e-71
 -4.3766299e-60
  5.5058529e-73
  8.4197109e-62
 -1.0583825e-74
 -1.6197744e-63
  2.0384121e-76
  3.1161036e-65
 -3.9173661e-78
 -5.9947248e-67
  7.5566475e-80
  1.1532583e-68
 -1.4539799e-81
 -2.2186253e-70
  2.7884114e-83
  4.2681662e-72
 -5.3616960e-85
 -8.2110497e-74
  1.0320853e-86
  1.5796324e-75
 -1.9906570e-88
 -3.0388789e-77
  3.8204529e-90
  5.8461607e-79
 -7.3440038e-92
 -1.1246778e-80
  1.4113644e-93
  2.1636423e-82
 -2.7230128e-95
 -4.1621450e-84
  5.2135148e-97
  6.7312269e-86
  7.3315052e-98
  6.6190700e-85
 -4.3348578e-96
 -3.4486476e-83
  2.2531972e-94
  1.7926349e-81
 -1.1715858e-92
 -9.3182526e-80
  6.0862941e-91
  4.8436987e-78
 -3.1656976e-89
 -2.5177915e-76
  1.6450066e-87
  1.3087672e-74
 -8.5526669e-86
 -6.8030717e-73
  4.4458425e-84
  3.5362885e-71
 -2.3108498e-82
 -1.8381897e-69
  1.2011359e-80
  9.5550503e-68
 -6.2450294e-79
 -4.9667880e-66
  3.2451267e-77
  2.5817742e-64
 -1.6875488e-75
 -1.3420259e-62
  8.7698592e-74
  6.9759530e-61
 -4.5604400e-72
 -3.6261536e-59
  2.3698350e-70
  1.8849023e-57
 -1.2316419e-68
 -9.7978656e-56
  6.4059474e-67
  5.0930052e-54
 -3.3287662e-65
 -2.6473829e-52
  1.7305330e-63
  1.3761298e-50
 -1.7990737e-61
 -7.1532276e-49
  4.6737334e-60
  3.7183022e-47
 -2.4307396e-58
 -1.9328018e-45
  1.2628503e-56
  1.0046851e-43
 -6.5657614e-55
 -5.2224299e-42
  3.4127864e-53
  2.7146588e-40
 -1.7739139e-51
 -1.4111004e-38
  9.2216797e-50
  7.3350072e-37
 -4.7928787e-48
 -3.8127926e-35
  2.4915087e-46
  1.9819187e-33
 -1.2945756e-44
 -1.0302164e-31
  6.7312549e-43
  5.3551435e-30
 -3.4998508e-41
 -2.7836444e-28
  1.8187836e-39
  1.4469596e-26
 -9.4547362e-38
 -7.5214062e-25
  4.9141306e-36
  3.9096843e-23
 -5.1102625e-34
 -2.0322837e-21
  1.3282445e-32
  1.0563965e-19
 -6.9072661e-31
 -5.4912297e-18
  3.5881181e-29
  2.8543831e-16
 -1.8660031e-27
 -1.4837301e-14
  1.9399453e-25
  7.7125420e-13
 -5.0424930e-24
 -4.0090381e-11
  2.6198729e-22
  2.0839286e-09
 -1.3614869e-20
 -1.0832419e-07
  7.0776718e-19
  5.6307742e-06
 -4.0000000e-05
 -1.5269193e-04
  2.5000000e-03
  7.6943498e-03
  1.3420000e-02
  1.9596504e-02
  2.6220000e-02
  3.3312450e-02
  4.0900000e-02
  4.9008577e-02
  5.7520000e-02
  6.6431561e-02
  7.5820000e-02
  8.5537738e-02
  9.5620000e-02
  1.0600607e-01
  1.1664000e-01
  1.2747901e-01
  1.3850000e-01
  1.4956312e-01
  1.6072000e-01
  1.7183630e-01
  1.8270000e-01
  1.9336200e-01
  2.0366000e-01
  2.1353975e-01
  2.2274000e-01
  2.3128330e-01
  2.3920000e-01
  2.4626354e-01
  2.5252000e-01
  2.5792537e-01
  2.6222000e-01
  2.6561220e-01
  2.6806000e-01
  2.6953012e-01
  2.6976000e-01
  2.6877639e-01
  2.6700000e-01
  2.6388988e-01
  2.5990000e-01
  2.5480465e-01
  2.4858000e-01
  2.4144058e-01
  2.3362000e-01
  2.2514535e-01
  2.1592000e-01
  2.0631391e-01
  1.9630000e-01
  1.8605644e-01
  1.7554000e-01
  1.6485884e-01
  1.5418000e-01
  1.4349886e-01
  1.3284000e-01
  1.2234530e-01
  1.1210000e-01
  1.0206557e-01
  9.2300000e-02
  8.2887305e-02
  7.3880000e-02
  6.5219577e-02
  5.6960000e-02
  4.9322212e-02
  4.2060000e-02
  3.5310399e-02
  2.9100000e-02
  2.3424553e-02
  1.8200000e-02
  1.3372820e-02
  9.0000000e-03
  5.0313098e-03
  1.4800000e-03
  4.4068422e-05
 -3.7452409e-17
 -2.8677614e-06
  3.6082248e-19
  5.5169668e-08
 -6.9388939e-21
 -1.0613478e-09
  1.3315358e-22
  2.0418089e-11
 -2.5728626e-24
 -3.9280087e-13
  4.9382683e-26
  7.5566585e-15
 -9.5125770e-28
 -1.4537414e-16
  1.8256135e-29
  2.7966912e-18
 -3.5214751e-31
 -5.3802427e-20
  6.7644823e-33
  1.0350450e-21
 -1.3003879e-34
 -1.9912078e-23
  5.0026030e-36
  3.8306630e-25
 -4.8148249e-38
 -7.3693860e-27
  9.2393856e-40
  1.4177477e-28
 -1.7852820e-41
 -2.9022044e-30
  1.4854392e-42
  9.1398582e-30
 -1.1878003e-40
 -4.7237042e-28
  3.0862604e-39
  2.4554122e-26
 -1.6046908e-37
 -1.2763420e-24
  8.3416841e-36
  6.6345228e-23
 -4.3379646e-34
 -3.4486755e-21
  4.5076005e-32
  1.7926478e-19
 -1.1717740e-30
 -9.3183200e-18
  6.0897538e-29
  4.8437338e-16
 -3.1665508e-27
 -2.5178097e-14
  1.6454690e-25
  1.3087767e-12
 -8.5550328e-24
 -6.8031209e-11
  4.4469230e-22
  3.5363141e-09
 -2.3117901e-20
 -1.8382030e-07
  1.2011225e-18
  9.5551194e-06
  2.0000000e-05
 -5.3168239e-04
 -5.6000000e-04
  3.2929151e-05
 -8.2933660e-18
 -6.3348728e-07
  7.9797280e-20
  1.2186956e-08
 -1.5368566e-21
 -2.3445128e-10
  2.9476747e-23
  4.5103471e-12
 -5.6645328e-25
 -8.6769546e-14
  2.1816889e-26
  1.6692627e-15
 -2.1034944e-28
 -3.2113086e-17
  4.0389678e-30
  6.1778790e-19
 -7.7623913e-32
 -1.1884934e-20
  1.4914401e-33
  2.2864116e-22
 -5.7469750e-35
 -4.4070050e-24
  6.0666793e-37
  5.2309773e-25
 -2.8768579e-36
 -2.2794077e-23
  1.4897068e-34
  1.1847689e-21
 -7.7431628e-33
 -6.1585189e-20
  8.0503255e-31
  3.2012450e-18
 -4.1848755e-29
 -1.6640316e-16
  1.0872901e-27
  8.6497629e-15
 -5.6548135e-26
 -4.4962127e-13
  2.9378147e-24
  2.3371656e-11
 -1.5269886e-22
 -1.2148765e-09
  1.5878141e-20
  6.3150206e-08
 -4.1286419e-19
 -3.2825958e-06
  2.1449509e-17
  1.7063183e-04
 -2.2200000e-03
 -5.3320728e-03
 -7.6000000e-03
 -9.3928479e-03
 -1.1200000e-02
 -1.2932339e-02
 -1.4780000e-02
 -1.6850525e-02
 -1.9360000e-02
 -2.2295347e-02
 -2.6260000e-02
 -3.0941456e-02
 -3.6700000e-02
 -4.4241419e-02
 -5.3720000e-02
 -6.4989737e-02
 -7.8480000e-02
 -9.3584752e-02
 -1.0970000e-01
 -1.2651816e-01
 -1.4306000e-01
 -1.5850339e-01
 -1.7200000e-01
 -1.8109062e-01
 -1.8508000e-01
 -1.8254683e-01
 -1.7078000e-01
 -1.4907909e-01
 -1.1722000e-01
 -7.3860644e-02
 -1.6660000e-02
  5.2582557e-02
  1.3430000e-01
  2.3117018e-01
  3.3836000e-01
  4.5344315e-01
  5.7358000e-01
  6.9395327e-01
  8.1126000e-01
  9.2070657e-01
  1.0148600e+00
  1.0907823e+00
  1.1438000e+00
  1.1635163e+00
  1.1562400e+00
  1.1227451e+00
  1.0604000e+00
  9.7504019e-01
  8.7136000e-01
  7.5214504e-01
  6.2268000e-01
  4.9086758e-01
  3.6120000e-01
  2.3866054e-01
  1.2524000e-01
  2.2279207e-02
 -6.6080000e-02
 -1.3993430e-01
 -1.9982000e-01
 -2.4479048e-01
 -2.7426000e-01
 -2.9172304e-01
 -2.9800000e-01
 -2.9245379e-01
 -2.7974000e-01
 -2.6124221e-01
 -2.3784000e-01
 -2.1161883e-01
 -1.8430000e-01
 -1.5689358e-01
 -1.3094000e-01
 -1.0729021e-01
 -8.6700000e-02
 -6.9395499e-02
 -5.4780000e-02
 -4.2633816e-02
 -3.3020000e-02
 -2.5361062e-02
 -1.9400000e-02
 -1.4855949e-02
 -1.1440000e-02
 -8.7220780e-03
 -6.5000000e-03
 -4.4834923e-03
 -2.6000000e-03
 -7.9882119e-04
  2.0000000e-05
  1.9694305e-05
 -3.6942671e-18
 -2.8268738e-07
  0.0000000e+00
  5.4383077e-09
 -1.3688052e-21
 -1.0462155e-10
  2.6300373e-23
  2.0126974e-12
  0.0000000e+00
 -3.8720045e-14
  9.7297120e-27
  7.4489182e-16
  0.0000000e+00
 -1.4330144e-17
  3.6047788e-30
  2.7568169e-19
 -6.9340874e-32
 -5.3035330e-21
  0.0000000e+00
  1.0202877e-22
 -2.5634128e-35
 -1.9628178e-24
  0.0000000e+00
  3.7760466e-26
 -9.4885904e-39
 -7.2643157e-28
  1.8278937e-40
  1.3975008e-29
 -3.5172995e-42
 -2.6884962e-31
  6.7656932e-44
  5.1720984e-33
  0.0000000e+00
 -9.9500242e-35
  2.5048210e-47
  1.9141744e-36
 -4.8114896e-49
 -3.6824669e-38
  9.2541805e-51
  7.0842880e-40
 -1.7813977e-52
 -1.3628673e-41
  0.0000000e+00
  2.6218686e-43
 -6.5905575e-56
 -5.0439211e-45
  1.2673365e-57
  9.7036505e-47
 -2.4406168e-59
 -1.9771715e-48
  1.9122081e-60
  5.7764104e-48
  0.0000000e+00
 -2.9839617e-46
  3.8996341e-57
  1.5510824e-44
  0.0000000e+00
 -8.0626447e-43
  1.0538628e-53
  4.1910242e-41
 -5.4781654e-52
 -2.1785263e-39
  0.0000000e+00
  1.1324146e-37
 -1.4803952e-48
 -5.8863772e-36
  0.0000000e+00
  3.0597838e-34
 -3.9998663e-45
 -1.5904989e-32
  2.0786749e-43
  8.2675346e-31
  0.0000000e+00
 -4.2975275e-29
  5.6162916e-40
  2.2338875e-27
  0.0000000e+00
 -1.1611918e-25
  1.5175726e-36
  6.0359633e-24
 -7.8905350e-35
 -3.1375397e-22
  0.0000000e+00
  1.6309171e-20
 -2.1320938e-31
 -8.4776312e-19
  0.0000000e+00
  4.4067373e-17
 -5.7603759e-28
 -2.2906556e-15
  2.9946523e-26
  1.1907003e-13
  0.0000000e+00
 -6.1893507e-12
  8.0907528e-23
  3.2172716e-10
  0.0000000e+00
 -1.6723623e-08
  2.1861853e-19
  8.6930668e-07
 -1.1361051e-17
 -4.5187224e-05
  6.6000000e-04
  2.2913663e-03
  4.0000000e-03
  5.9241385e-03
  7.8400000e-03
  9.8659328e-03
  1.2120000e-02
  1.4512356e-02
  1.7040000e-02
  1.9711535e-02
  2.2540000e-02
  2.5580322e-02
  2.8800000e-02
  3.2206733e-02
  3.5840000e-02
  3.9607059e-02
  4.3620000e-02
  4.7996208e-02
  5.2480000e-02
  5.7265130e-02
  6.2320000e-02
  6.7599522e-02
  7.3100000e-02
  7.8932211e-02
  8.5080000e-02
  9.1483015e-02
  9.8180000e-02
  1.0513853e-01
  1.1244000e-01
  1.1997851e-01
  1.2786000e-01
  1.3594397e-01
  1.4430000e-01
  1.5288780e-01
  1.6184000e-01
  1.7106568e-01
  1.8052000e-01
  1.9003958e-01
  1.9988000e-01
  2.0999602e-01
  2.2020000e-01
  2.3048718e-01
  2.4100000e-01
  2.5165286e-01
  2.6230000e-01
  2.7303922e-01
  2.8380000e-01
  2.9460021e-01
  3.0538000e-01
  3.1602465e-01
  3.2658000e-01
  3.3705539e-01
  3.4740000e-01
  3.5745750e-01
  3.6734000e-01
  3.7695715e-01
  3.8626000e-01
  3.9516309e-01
  4.0370000e-01
  4.1194229e-01
  4.1952000e-01
  4.2670782e-01
  4.3340000e-01
  4.3952382e-01
  4.4506000e-01
  4.5014331e-01
  4.5450000e-01
  4.5825158e-01
  4.6144000e-01
  4.6395954e-01
  4.6578000e-01
  4.6710982e-01
  4.6760000e-01
  4.7074484e-01
  4.7476000e-01
  4.7816587e-01
  4.8080000e-01
  4.8290971e-01
  4.8424000e-01
  4.8502897e-01
  4.8472000e-01
  4.8387902e-01
  4.8240000e-01
  4.8015184e-01
  4.7732000e-01
  4.7394523e-01
  4.6982000e-01
  4.6515109e-01
  4.5994000e-01
  4.5411817e-01
  4.4792000e-01
  4.4123161e-01
  4.3410000e-01
  4.2637317e-01
  4.1834000e-01
  4.0990080e-01
  4.0108000e-01
  3.9187525e-01
  3.8238000e-01
  3.7263117e-01
  3.6266000e-01
  3.5234162e-01
  3.4180000e-01
  3.3109700e-01
  3.2026000e-01
  3.0922693e-01
  2.9806000e-01
  2.8679992e-01
  2.7550000e-01
  2.6413745e-01
  2.5280000e-01
  2.4147747e-01
  2.3020000e-01
  2.1894172e-01
  2.0782000e-01
  1.9682311e-01
  1.8608000e-01
  1.7543897e-01
  1.6510000e-01
  1.5496551e-01
  1.4508000e-01
  1.3547947e-01
  1.2620000e-01
  1.1705229e-01
  1.0832000e-01
  9.9716547e-02
  9.1460000e-02
  8.3352283e-02
  7.5640000e-02
  6.8139740e-02
  6.0960000e-02
  5.3966256e-02
  4.7200000e-02
  4.0667447e-02
  3.4500000e-02
  2.8561483e-02
  2.2680000e-02
  1.7197957e-02
  1.1860000e-02
  6.8197721e-03
  2.0800000e-03
 -7.6105691e-05
  0.0000000e+00
 -7.7276172e-05
 -6.9727752e-18
 -5.3334785e-07
  1.3409412e-19
  1.0260485e-08
  0.0000000e+00
 -1.9739005e-10
  4.9636131e-23
  3.7973674e-12
  0.0000000e+00
 -7.3053323e-14
  1.8363410e-26
  1.4053915e-15
 -3.5316735e-28
 -2.7036763e-17
  6.8056608e-30
  5.2013017e-19
 -1.3079314e-31
 -1.0006205e-20
  0.0000000e+00
  1.9249824e-22
 -4.8379360e-35
 -3.7032593e-24
  9.3166861e-37
  7.1242882e-26
 -1.7923938e-38
 -1.3705625e-27
  3.4471372e-40
  2.6366725e-29
  0.0000000e+00
 -5.0724007e-31
  1.2742175e-43
  9.7582268e-33
 -2.4550749e-45
 -1.8772766e-34
  4.7223758e-47
  3.6114834e-36
 -9.0865447e-49
 -6.9477308e-38
  0.0000000e+00
  1.3365966e-39
 -3.3623380e-52
 -2.5713293e-41
  6.4731020e-54
  4.9466941e-43
 -1.2437230e-55
 -9.5163939e-45
  2.3919319e-57
  1.8307531e-46
  0.0000000e+00
 -3.5219819e-48
  8.8615738e-61
  6.7755489e-50
 -1.7051062e-62
 -1.3034724e-51
  3.2768065e-64
  2.5076054e-53
 -6.3202499e-66
 -4.8241028e-55
  0.0000000e+00
  9.2805542e-57
 -2.3312361e-69
 -1.7853825e-58
  4.4916168e-71
  3.4346986e-60
 -8.6391178e-73
 -6.6076341e-62
  1.6597362e-74
  1.2711691e-63
  0.0000000e+00
 -2.4454608e-65
  6.1558609e-78
  4.7045497e-67
  0.0000000e+00
 -9.0505592e-69
  2.2804883e-81
  1.7411363e-70
 -4.3750121e-83
 -3.3495783e-72
  0.0000000e+00
  6.4438806e-74
 -1.6214806e-86
 -1.2396664e-75
  0.0000000e+00
  2.3848562e-77
 -5.9945922e-90
 -4.5879593e-79
  1.1536370e-91
  8.8262641e-81
 -2.2244330e-93
 -1.6979866e-82
  4.2666926e-95
  3.2665061e-84
  0.0000000e+00
 -5.9650765e-86
 -2.5901374e-98
 -1.6466630e-85
  2.1681780e-96
  8.6222982e-84
 -1.1270780e-94
 -4.4819484e-82
  5.8598468e-93
  2.3297509e-80
  0.0000000e+00
 -1.2110223e-78
  1.5828488e-89
  6.2949862e-77
 -8.2280491e-88
 -3.2721818e-75
  4.2772986e-86
  1.7009050e-73
 -2.2229213e-84
 -8.8414340e-72
  0.0000000e+00
  4.5958448e-70
 -6.0082095e-81
 -2.3889551e-68
  3.1225147e-79
  1.2417971e-66
 -1.6234270e-77
 -6.4549559e-65
  8.4371912e-76
  3.3553353e-63
  0.0000000e+00
 -1.7441288e-61
  2.2799936e-72
  9.0661146e-60
 -1.1849899e-70
 -4.7126355e-58
  6.1591368e-69
  2.4496638e-56
 -3.2017867e-67
 -1.2733539e-54
  0.0000000e+00
  6.6189908e-53
 -8.6496266e-64
 -3.4406019e-51
  4.4969064e-62
  1.7884511e-49
 -2.3373645e-60
 -9.2965049e-48
  1.2150512e-58
  4.8323941e-46
  0.0000000e+00
 -2.5119153e-44
  3.2835332e-55
  1.3057127e-42
 -1.7067064e-53
 -6.7871942e-41
  8.8715743e-52
  3.5280353e-39
 -4.6108399e-50
 -1.8338996e-37
  0.0000000e+00
  9.5327500e-36
 -1.2460171e-46
 -4.9551961e-34
  6.4779225e-45
  2.5757487e-32
 -3.3663449e-43
 -1.3388938e-30
  1.7500402e-41
  6.9596720e-29
 -9.0953875e-40
 -3.6176905e-27
  4.7283085e-38
  1.8805031e-25
  0.0000000e+00
 -9.7749985e-24
  1.2774693e-34
  5.0811187e-22
 -6.6412227e-33
 -2.6412042e-20
  3.4516609e-31
  1.3729181e-18
 -1.7943115e-29
 -7.1365329e-17
  0.0000000e+00
  3.7096242e-15
 -4.8493463e-26
 -1.9282909e-13
  2.5209156e-24
  1.0023403e-11
 -1.3099365e-22
 -5.2102413e-10
  6.8108225e-21
  2.7083232e-08
  0.0000000e+00
 -1.4078070e-06
  1.8404722e-17
 -1.1432112e-04
  1.3000000e-03
  5.8061060e-03
  1.1460000e-02
  1.7524311e-02
  2.3940000e-02
  3.0869697e-02
  3.8340000e-02
  4.6268923e-02
  5.4600000e-02
  6.3428799e-02
  7.2660000e-02
  8.2236046e-02
  9.2220000e-02
  1.0252433e-01
  1.1308000e-01
  1.2382383e-01
  1.3482000e-01
  1.4586420e-01
  1.5700000e-01
  1.6814027e-01
  1.7910000e-01
  1.8985909e-01
  2.0028000e-01
  2.1026458e-01
  2.1978000e-01
  2.2853769e-01
  2.3660000e-01
  2.4398056e-01
  2.5060000e-01
  2.5620090e-01
  2.6086000e-01
  2.6463759e-01
  2.6738000e-01
  2.6905698e-01
  2.6992000e-01
  2.6924431e-01
  2.6764000e-01
  2.6498617e-01
  2.6150000e-01
  2.5655975e-01
  2.5074000e-01
  2.4394946e-01
  2.3630000e-01
  2.2802320e-01
  2.1904000e-01
  2.0958896e-01
  1.9966000e-01
  1.8949104e-01
  1.7910000e-01
  1.6841717e-01
  1.5774000e-01
  1.4706090e-01
  1.3638000e-01
  1.2582593e-01
  1.1550000e-01
  1.0536058e-01
  9.5540000e-02
  8.5991331e-02
  7.6800000e-02
  6.8085184e-02
  5.9680000e-02
  5.1791605e-02
  4.4420000e-02
  3.7536374e-02
  3.1100000e-02
  2.5226938e-02
  1.9920000e-02
  1.4932844e-02
  1.0400000e-02
  6.2951772e-03
  2.6400000e-03
  1.4794149e-04
 -2.0000000e-05
 -3.1346499e-06
  7.8687057e-19
  6.0304038e-08
 -1.5135462e-20
 -1.1601222e-09
  2.9171815e-22
  2.2318300e-11
  0.0000000e+00
 -4.2935692e-13
  1.0794707e-25
  8.2599197e-15
 -2.0731214e-27
 -1.5890340e-16
  3.9985782e-29
  3.0569655e-18
 -7.6866607e-31
 -5.8809556e-20
  0.0000000e+00
  1.1313716e-21
 -2.8442133e-34
 -2.1765198e-23
  5.4792707e-36
  4.1871640e-25
 -1.0517383e-37
 -8.0552186e-27
  2.0242013e-39
  1.5496674e-28
  0.0000000e+00
 -3.0521368e-30
  1.6759978e-42
  3.7443669e-30
 -4.8209044e-41
 -1.9165494e-28
  2.5049785e-39
  9.9623126e-27
 -1.3018835e-37
 -5.1784860e-25
  0.0000000e+00
  2.6918165e-23
 -3.5186740e-34
 -1.3992267e-21
  1.8291712e-32
  7.2732872e-20
 -9.5073516e-31
 -3.7807101e-18
  4.9421820e-29
  1.9652419e-16
  0.0000000e+00
 -1.0215477e-14
  1.3352763e-25
  5.3100829e-13
 -6.9423614e-24
 -2.7602216e-11
  3.6083604e-22
  1.4347842e-09
 -1.8752632e-20
 -7.4581177e-08
  9.7491459e-19
  3.8767864e-06
 -5.0670579e-17
 -1.2151831e-04
 -1.1200000e-03
  1.2507547e-04
 -3.1485925e-17
 -2.4061877e-06
  6.0576544e-19
  4.6289966e-08
 -1.1655173e-20
 -8.9052111e-10
  2.2378610e-22
  1.7131744e-11
  0.0000000e+00
 -3.2957855e-13
  8.2800779e-26
  6.3403947e-15
 -1.5962001e-27
 -1.2197579e-16
  3.0655766e-29
  2.3465565e-18
 -5.9006796e-31
 -4.5142787e-20
  0.0000000e+00
  8.6845181e-22
 -2.1847749e-34
 -1.6707365e-23
  4.1985273e-36
  3.3117645e-25
 -2.0854210e-37
 -5.1381019e-25
  6.6372361e-36
  2.6386954e-23
  0.0000000e+00
 -1.3716078e-21
  1.7931794e-32
  7.1297217e-20
 -9.3196027e-31
 -3.7060837e-18
  4.8437322e-29
  1.9264505e-16
 -2.5185388e-27
 -1.0013837e-14
  0.0000000e+00
  5.2052687e-13
 -6.8047186e-24
 -2.7057383e-11
  3.5363626e-22
  1.4064634e-09
 -1.8386714e-20
 -7.3109040e-08
  9.5548569e-19
  3.8002636e-06
 -7.4000000e-04
 -4.6525406e-03
 -6.8400000e-03
 -8.8066892e-03
 -1.0600000e-02
 -1.2372122e-02
 -1.4140000e-02
 -1.6092963e-02
 -1.8480000e-02
 -2.1276308e-02
 -2.4820000e-02
 -2.9244038e-02
 -3.4700000e-02
 -4.1551206e-02
 -5.0200000e-02
 -6.1078238e-02
 -7.3840000e-02
 -8.8342911e-02
 -1.0422000e-01
 -1.2090037e-01
 -1.3762000e-01
 -1.5365764e-01
 -1.6764000e-01
 -1.7843215e-01
 -1.8500000e-01
 -1.8399796e-01
 -1.7534000e-01
 -1.5806918e-01
 -1.2920000e-01
 -8.9027000e-02
 -3.7220000e-02
  2.7258164e-02
  1.0634000e-01
  1.9778498e-01
  3.0080000e-01
  4.1458030e-01
  5.3334000e-01
  6.5410172e-01
  7.7292000e-01
  8.8485272e-01
  9.8542000e-01
  1.0693519e+00
  1.1275600e+00
  1.1594520e+00
  1.1642000e+00
  1.1359721e+00
  1.0830000e+00
  1.0069851e+00
  9.0798000e-01
  7.9262397e-01
  6.6656000e-01
  5.3465360e-01
  4.0420000e-01
  2.7880391e-01
  1.6100000e-01
  5.5658043e-02
 -3.7640000e-02
 -1.1777216e-01
 -1.8168000e-01
 -2.3065577e-01
 -2.6602000e-01
 -2.8799287e-01
 -2.9652000e-01
 -2.9507260e-01
 -2.8530000e-01
 -2.6778946e-01
 -2.4592000e-01
 -2.2064800e-01
 -1.9346000e-01
 -1.6598710e-01
 -1.3938000e-01
 -1.1465279e-01
 -9.3380000e-02
 -7.4922977e-02
 -5.9100000e-02
 -4.6512430e-02
 -3.6060000e-02
 -2.7600679e-02
 -2.1200000e-02
 -1.6297263e-02
 -1.2480000e-02
 -9.5216600e-03
 -7.2200000e-03
 -5.1439168e-03
 -3.2000000e-03
 -1.4021678e-03
 -1.4000000e-04
  4.9142708e-05
 -9.8476782e-18
 -7.5302298e-07
  1.8943180e-19
  1.4486571e-08
 -3.6429193e-21
 -2.7869100e-10
  7.0219031e-23
  5.3614258e-12
 -1.3499588e-24
 -1.0314250e-13
  2.5932112e-26
  1.9842437e-15
 -4.9889331e-28
 -3.8172655e-17
  9.6026460e-30
  7.3436121e-19
 -1.8459345e-31
 -1.4127558e-20
  3.5548045e-33
  2.7178435e-22
 -6.8409032e-35
 -5.2285565e-24
  1.3144472e-36
  1.0058638e-25
 -2.5277831e-38
 -1.9350693e-27
  4.8665466e-40
  3.7226643e-29
 -9.3672206e-42
 -7.1616193e-31
  1.7979668e-43
  1.3777442e-32
 -3.4617677e-45
 -2.6504886e-34
  6.6561677e-47
  5.0989799e-36
  0.0000000e+00
 -9.8093597e-38
  0.0000000e+00
  1.8871135e-39
  0.0000000e+00
 -3.6304075e-41
  0.0000000e+00
  6.9841367e-43
  0.0000000e+00
 -1.3436003e-44
 -3.3786513e-57
  2.5848055e-46
  0.0000000e+00
 -4.9856847e-48
 -1.4212671e-60
  7.7505139e-49
  0.0000000e+00
 -3.5316988e-47
  0.0000000e+00
  1.8357083e-45
  2.3994935e-56
 -9.5421515e-44
  0.0000000e+00
  4.9600831e-42
  6.4834306e-53
 -2.5782890e-40
  0.0000000e+00
  1.3402143e-38
  0.0000000e+00
 -6.9665359e-37
 -9.1061080e-48
  3.6212585e-35
  0.0000000e+00
 -1.8823577e-33
 -2.4604700e-44
  9.7846390e-32
  0.0000000e+00
 -5.0861299e-30
  0.0000000e+00
  2.6438091e-28
  0.0000000e+00
 -1.3742721e-26
  0.0000000e+00
  7.1435712e-25
  9.3375146e-36
 -3.7132828e-23
  0.0000000e+00
  1.9301927e-21
  0.0000000e+00
 -1.0033289e-19
  0.0000000e+00
  5.2153799e-18
  0.0000000e+00
 -2.7109942e-16
 -3.5435985e-27
  1.4091955e-14
  0.0000000e+00
 -7.3251054e-13
  0.0000000e+00
  3.8076456e-11
  0.0000000e+00
 -1.9792432e-09
  0.0000000e+00
  1.0288257e-07
  1.3448001e-18
 -5.3479144e-06
  2.2000000e-04
  1.6929887e-03
  3.4400000e-03
  5.2749373e-03
  7.2000000e-03
  9.1652719e-03
  1.1360000e-02
  1.3690921e-02
  1.6180000e-02
  1.8811818e-02
  2.1580000e-02
  2.4524546e-02
  2.7720000e-02
  3.1046781e-02
  3.4600000e-02
  3.8340349e-02
  4.2260000e-02
  4.6510055e-02
  5.0960000e-02
  5.5639281e-02
  6.0640000e-02
  6.5777320e-02
  7.1260000e-02
  7.6947599e-02
  8.3000000e-02
  8.9310026e-02
  9.5940000e-02
  1.0275354e-01
  1.0998000e-01
  1.1743840e-01
  1.2522000e-01
  1.3319985e-01
  1.4150000e-01
  1.4999187e-01
  1.5880000e-01
  1.6796783e-01
  1.7736000e-01
  1.8682367e-01
  1.9656000e-01
  2.0661136e-01
  2.1680000e-01
  2.2702544e-01
  2.3748000e-01
  2.4811806e-01
  2.5870000e-01
  2.6947779e-01
  2.8020000e-01
  2.9099957e-01
  3.0180000e-01
  3.1248703e-01
  3.2306000e-01
  3.3358966e-01
  3.4396000e-01
  3.5411792e-01
  3.6410000e-01
  3.7377354e-01
  3.8318000e-01
  3.9227051e-01
  4.0088000e-01
  4.0923514e-01
  4.1704000e-01
  4.2439199e-01
  4.3120000e-01
  4.3754395e-01
  4.4330000e-01
  4.4849258e-01
  4.5310000e-01
  4.5709456e-01
  4.6046000e-01
  4.6315056e-01
  4.6526000e-01
  4.6675651e-01
  4.6748000e-01
  4.6943072e-01
  4.7360000e-01
  4.7703095e-01
  4.8000000e-01
  4.8232487e-01
  4.8388000e-01
  4.8476556e-01
  4.8504000e-01
  4.8416621e-01
  4.8296000e-01
  4.8094666e-01
  4.7840000e-01
  4.7509489e-01
  4.7126000e-01
  4.6678931e-01
  4.6176000e-01
  4.5607842e-01
  4.5004000e-01
  4.4355278e-01
  4.3650000e-01
  4.2897704e-01
  4.2110000e-01
  4.1274857e-01
  4.0404000e-01
  3.9500239e-01
  3.8558000e-01
  3.7588956e-01
  3.6602000e-01
  3.5584059e-01
  3.4532000e-01
  3.3467718e-01
  3.2390000e-01
  3.1293120e-01
  3.0178000e-01
  2.9056308e-01
  2.7928000e-01
  2.6791374e-01
  2.5660000e-01
  2.4523228e-01
  2.3396000e-01
  2.2268528e-01
  2.1150000e-01
  2.0048075e-01
  1.8964000e-01
  1.7894303e-01
  1.6852000e-01
  1.5832411e-01
  1.4836000e-01
  1.3861306e-01
  1.2928000e-01
  1.2005667e-01
  1.1120000e-01
  1.0257762e-01
  9.4180000e-02
  8.5997320e-02
  7.8180000e-02
  7.0624234e-02
  6.3320000e-02
  5.6267525e-02
  4.9440000e-02
  4.2811991e-02
  3.6500000e-02
  3.0526426e-02
  2.4640000e-02
  1.8986357e-02
  1.3600000e-02
  8.4855166e-03
  3.5600000e-03
  5.6781577e-05
 -8.0000000e-05
 -6.3158562e-05
 -4.4408921e-17
 -2.5363506e-06
 -6.3779713e-19
  4.8794025e-08
  0.0000000e+00
 -9.3869392e-10
  0.0000000e+00
  1.8058487e-11
  0.0000000e+00
 -3.4740712e-13
  0.0000000e+00
  6.6833788e-15
  1.6806193e-27
 -1.2857408e-16
  0.0000000e+00
  2.4734936e-18
  0.0000000e+00
 -4.7584789e-20
  0.0000000e+00
  9.1543077e-22
  0.0000000e+00
 -1.7610953e-23
 -4.4284948e-36
  3.3879752e-25
  0.0000000e+00
 -6.5177482e-27
  0.0000000e+00
  1.2538770e-28
  0.0000000e+00
 -2.4121943e-30
  0.0000000e+00
  4.6405521e-32
  1.1669249e-44
 -8.9274414e-34
  0.0000000e+00
  1.7174510e-35
  0.0000000e+00
 -3.3040128e-37
  0.0000000e+00
  6.3562223e-39
  0.0000000e+00
 -1.2228028e-40
 -3.0748909e-53
  2.3524142e-42
  0.0000000e+00
 -4.5255477e-44
  0.0000000e+00
  8.7061974e-46
  0.0000000e+00
 -1.6748884e-47
  0.0000000e+00
  3.2221312e-49
  8.1024526e-62
 -6.1986995e-51
  0.0000000e+00
  1.1924988e-52
  0.0000000e+00
 -2.2941156e-54
  0.0000000e+00
  4.4133935e-56
  0.0000000e+00
 -8.4904363e-58
  0.0000000e+00
  1.6333805e-59
  0.0000000e+00
 -3.1422789e-61
 -7.9016538e-74
  6.0450804e-63
  0.0000000e+00
 -1.1629457e-64
  0.0000000e+00
  2.2372617e-66
  0.0000000e+00
 -4.3040188e-68
  0.0000000e+00
  8.2800224e-70
  2.0821154e-82
 -1.5929013e-71
  0.0000000e+00
  3.0644055e-73
  0.0000000e+00
 -5.8952684e-75
  0.0000000e+00
  1.1341250e-76
  0.0000000e+00
 -2.1818169e-78
 -5.4864519e-91
  4.1973546e-80
  0.0000000e+00
 -8.0748230e-82
  0.0000000e+00
  1.5534187e-83
  0.0000000e+00
 -2.9542627e-85
  0.0000000e+00
 -1.7202105e-85
 -2.3222268e-96
  9.2405208e-84
  0.0000000e+00
 -4.8033506e-82
  0.0000000e+00
  2.4968183e-80
  0.0000000e+00
 -1.2978652e-78
  0.0000000e+00
  6.7464020e-77
  8.8183663e-88
 -3.5068312e-75
  0.0000000e+00
  1.8228776e-73
  0.0000000e+00
 -9.4754566e-72
  0.0000000e+00
  4.9254145e-70
  0.0000000e+00
 -2.5602680e-68
 -3.3465810e-79
  1.3308468e-66
  0.0000000e+00
 -6.9178432e-65
  0.0000000e+00
  3.5959476e-63
  0.0000000e+00
 -1.8692010e-61
  0.0000000e+00
  9.7162492e-60
  1.2700317e-70
 -5.0505804e-58
  0.0000000e+00
  2.6253302e-56
  0.0000000e+00
 -1.3646666e-54
  0.0000000e+00
  7.0936411e-53
  0.0000000e+00
 -3.6873287e-51
  0.0000000e+00
  1.9167016e-49
  0.0000000e+00
 -9.9631608e-48
  0.0000000e+00
  5.1789269e-46
  0.0000000e+00
 -2.6920457e-44
  0.0000000e+00
  1.3993459e-42
  0.0000000e+00
 -7.2739065e-41
  0.0000000e+00
  3.7810320e-39
  0.0000000e+00
 -1.9654093e-37
  0.0000000e+00
  1.0216347e-35
  0.0000000e+00
 -5.3105351e-34
  0.0000000e+00
  2.7604566e-32
  0.0000000e+00
 -1.4349064e-30
 -1.8755968e-41
  7.4587527e-29
  0.0000000e+00
 -3.8771165e-27
  0.0000000e+00
  2.0153547e-25
  0.0000000e+00
 -1.0475967e-23
  0.0000000e+00
  5.4454877e-22
  7.1179134e-33
 -2.8306060e-20
  0.0000000e+00
  1.4713706e-18
  0.0000000e+00
 -7.6482964e-17
  0.0000000e+00
  3.9756427e-15
  0.0000000e+00
 -2.0665694e-13
 -2.7012570e-24
  1.0742185e-11
  0.0000000e+00
 -5.5838697e-10
  0.0000000e+00
  2.9025380e-08
  0.0000000e+00
 -1.5087614e-06
  0.0000000e+00
 -2.4073433e-05
  1.0000000e-04
  4.1233273e-03
  9.5800000e-03
  1.5433556e-02
  2.1740000e-02
  2.8536780e-02
  3.5780000e-02
  4.3553876e-02
  5.1800000e-02
  6.0449155e-02
  6.9500000e-02
  7.9025041e-02
  8.8860000e-02
  9.9041230e-02
  1.0954000e-01
  1.2022600e-01
  1.3114000e-01
  1.4217660e-01
  1.5328000e-01
  1.6443320e-01
  1.7550000e-01
  1.8627972e-01
  1.9684000e-01
  2.0700387e-01
  2.1670000e-01
  2.2565177e-01
  2.3400000e-01
  2.4164911e-01
  2.4844000e-01
  2.5441697e-01
  2.5950000e-01
  2.6344344e-01
  2.6654000e-01
  2.6862178e-01
  2.6982000e-01
  2.6952897e-01
  2.6828000e-01
  2.6606679e-01
  2.6270000e-01
  2.5828792e-01
  2.5290000e-01
  2.4627649e-01
  2.3890000e-01
  2.3090961e-01
  2.2210000e-01
  2.1276365e-01
  2.0302000e-01
  1.9291071e-01
  1.8258000e-01
  1.7198441e-01
  1.6130000e-01
  1.5062023e-01
  1.3994000e-01
  1.2930384e-01
  1.1892000e-01
  1.0872487e-01
  9.8780000e-02
  8.9118090e-02
  7.9840000e-02
  7.0964433e-02
  6.2400000e-02
  5.4358882e-02
  4.6860000e-02
  3.9748708e-02
  3.3180000e-02
  2.7150812e-02
  2.1640000e-02
  1.6534052e-02
  1.1880000e-02
  7.6085054e-03
  3.8000000e-03
  7.4616908e-04
 -6.0000000e-05
  1.0702631e-05
  2.6913107e-18
 -2.0589600e-07
  0.0000000e+00
  3.9610039e-09
  0.0000000e+00
 -7.6201344e-11
  0.0000000e+00
  1.4659528e-12
  0.0000000e+00
 -2.8201834e-14
 -7.0917043e-27
  5.4254367e-16
  0.0000000e+00
 -1.0437394e-17
  0.0000000e+00
  2.0079339e-19
  0.0000000e+00
 -3.8628405e-21
  0.0000000e+00
  7.4312887e-23
  0.0000000e+00
 -1.4296229e-24
  0.0000000e+00
  2.7502923e-26
  0.0000000e+00
 -5.2909900e-28
  0.0000000e+00
  1.0225573e-29
  0.0000000e+00
 -2.6307758e-30
  0.0000000e+00
  1.2657477e-28
  0.0000000e+00
 -6.5792572e-27
  0.0000000e+00
  3.4199480e-25
  0.0000000e+00
 -1.7777150e-23
  0.0000000e+00
  9.2406982e-22
  0.0000000e+00
 -4.8033854e-20
  0.0000000e+00
  2.4968363e-18
  0.0000000e+00
 -1.2978745e-16
  0.0000000e+00
  6.7464508e-15
  0.0000000e+00
 -3.5068566e-13
  0.0000000e+00
  1.8228908e-11
  0.0000000e+00
 -9.4755251e-10
  0.0000000e+00
  4.9254502e-08
  0.0000000e+00
 -2.5602865e-06
  0.0000000e+00
  1.9308565e-04
 -1.1000000e-03
 -1.9289327e-04
  0.0000000e+00
  2.3642067e-06
  0.0000000e+00
 -4.5482340e-08
  0.0000000e+00
  8.7498410e-10
  0.0000000e+00
 -1.6832845e-11
  0.0000000e+00
  3.2382836e-13
  0.0000000e+00
 -6.2297731e-15
 -1.5665545e-27
  1.1984767e-16
  0.0000000e+00
 -2.3056158e-18
  0.0000000e+00
  4.4355176e-20
  0.0000000e+00
 -8.5329988e-22
  0.0000000e+00
  1.6417946e-23
  4.1574740e-36
 -4.3329306e-25
  0.0000000e+00
  6.1132937e-24
  0.0000000e+00
 -3.1745798e-22
  0.0000000e+00
  1.6501702e-20
  0.0000000e+00
 -8.5777102e-19
  0.0000000e+00
  4.4587591e-17
  0.0000000e+00
 -2.3176970e-15
  0.0000000e+00
  1.2047566e-13
  0.0000000e+00
 -6.2624164e-12
  0.0000000e+00
  3.2552518e-10
  0.0000000e+00
 -1.6921047e-08
  0.0000000e+00
  8.7956891e-07
  0.0000000e+00
 -4.5720662e-05
  0.0000000e+00
 -3.4584051e-03
 -6.0800000e-03
 -8.2272121e-03
 -1.0000000e-02
 -1.1799066e-02
 -1.3500000e-02
 -1.5438849e-02
 -1.7640000e-02
 -2.0243276e-02
 -2.3520000e-02
 -2.7743301e-02
 -3.2700000e-02
 -3.8990052e-02
 -4.7200000e-02
 -5.7283998e-02
 -6.9200000e-02
 -8.3384549e-02
 -9.8860000e-02
 -1.1527447e-01
 -1.3210000e-01
 -1.4838031e-01
 -1.6328000e-01
 -1.7555456e-01
 -1.8308000e-01
 -1.8497505e-01
 -1.7990000e-01
 -1.6461020e-01
 -1.3960000e-01
 -1.0442210e-01
 -5.6020000e-02
  5.0169419e-03
  7.8380000e-02
  1.6513112e-01
  2.6584000e-01
  3.7598717e-01
  4.9310000e-01
  6.1385850e-01
  7.3356000e-01
  8.4921813e-01
  9.5374000e-01
  1.0424961e+00
  1.1113200e+00
  1.1537773e+00
  1.1641600e+00
  1.1477594e+00
  1.1056000e+00
  1.0340811e+00
  9.4234000e-01
  8.3334233e-01
  7.0952000e-01
  5.7876498e-01
  4.4720000e-01
  3.1940869e-01
  1.9976000e-01
  8.9767914e-02
 -9.2000000e-03
 -9.2185239e-02
 -1.6144000e-01
 -2.1680049e-01
 -2.5590000e-01
 -2.8141922e-01
 -2.9504000e-01
 -2.9719502e-01
 -2.8898000e-01
 -2.7410700e-01
 -2.5400000e-01
 -2.2928863e-01
 -2.0258000e-01
 -1.7507197e-01
 -1.4806000e-01
 -1.2275152e-01
 -1.0006000e-01
 -8.0609214e-02
 -6.4220000e-02
 -5.0499349e-02
 -3.9100000e-02
 -3.0282138e-02
 -2.3200000e-02
 -1.7719484e-02
 -1.3640000e-02
 -1.0462176e-02
 -7.9400000e-03
 -5.8123739e-03
 -3.8400000e-03
 -2.0168805e-03
 -3.0000000e-04
  4.2660106e-05
  0.0000000e+00
  1.0550037e-06
  0.0000000e+00
 -2.0296041e-08
  0.0000000e+00
  3.9045293e-10
  0.0000000e+00
 -7.5114890e-12
  0.0000000e+00
  1.4450517e-13
  0.0000000e+00
 -2.7799741e-15
  0.0000000e+00
  5.3480827e-17
  0.0000000e+00
 -1.0288581e-18
  0.0000000e+00
  1.9793055e-20
  0.0000000e+00
 -3.8077654e-22
  0.0000000e+00
  7.3253358e-24
  0.0000000e+00
 -1.4092398e-25
  0.0000000e+00
  2.7110795e-27
  0.0000000e+00
 -5.2155440e-29
  0.0000000e+00
  1.0033604e-30
  0.0000000e+00
 -1.9302534e-32
  0.0000000e+00
  3.7133996e-34
  0.0000000e+00
 -7.1437960e-36
  0.0000000e+00
  1.3743154e-37
  0.0000000e+00
 -2.6438923e-39
  0.0000000e+00
  5.0862899e-41
  0.0000000e+00
 -9.7849469e-43
 -2.4605475e-55
  1.8824170e-44
  0.0000000e+00
 -3.6213781e-46
  0.0000000e+00
  6.9963461e-48
  0.0000000e+00
 -1.6721875e-48
  0.0000000e+00
  7.9957405e-47
  0.0000000e+00
 -4.1561129e-45
  0.0000000e+00
  2.1603791e-43
  0.0000000e+00
 -1.1229815e-41
  0.0000000e+00
  5.8373436e-40
  0.0000000e+00
 -3.0342957e-38
  0.0000000e+00
  1.5772500e-36
  0.0000000e+00
 -8.1986659e-35
  0.0000000e+00
  4.2617290e-33
  0.0000000e+00
 -2.2152792e-31
  0.0000000e+00
  1.1515190e-29
  0.0000000e+00
 -5.9856836e-28
  0.0000000e+00
  3.1114040e-26
  0.0000000e+00
 -1.6173315e-24
  0.0000000e+00
  8.4070123e-23
  0.0000000e+00
 -4.3700291e-21
  0.0000000e+00
  2.2715744e-19
  0.0000000e+00
 -1.1807817e-17
  0.0000000e+00
  6.1377933e-16
  0.0000000e+00
 -3.1904717e-14
  0.0000000e+00
  1.6584315e-12
  0.0000000e+00
 -8.6206534e-11
  0.0000000e+00
  4.4810813e-09
  0.0000000e+00
 -2.3293002e-07
  0.0000000e+00
  1.2107880e-05
  0.0000000e+00
  1.1506232e-03
  2.8800000e-03
  4.6254875e-03
  6.5600000e-03
  8.4890272e-03
  1.0600000e-02
  1.2902600e-02
  1.5340000e-02
  1.7910748e-02
  2.0640000e-02
  2.3526017e-02
  2.6640000e-02
  2.9906393e-02
  3.3400000e-02
  3.7084067e-02
  4.0900000e-02
  4.5054648e-02
  4.9480000e-02
  5.4011712e-02
  5.8960000e-02
  6.4038803e-02
  6.9420000e-02
  7.4995545e-02
  8.0960000e-02
  8.7170343e-02
  9.3700000e-02
  1.0046159e-01
  1.0754000e-01
  1.1489930e-01
  1.2260000e-01
  1.3052484e-01
  1.3870000e-01
  1.4712385e-01
  1.5584000e-01
  1.6488484e-01
  1.7420000e-01
  1.8367449e-01
  1.9328000e-01
  2.0322670e-01
  2.1340000e-01
  2.2361215e-01
  2.3396000e-01
  2.4456138e-01
  2.5518000e-01
  2.6589340e-01
  2.7660000e-01
  2.8740189e-01
  2.9820000e-01
  3.0895077e-01
  3.1954000e-01
  3.3008787e-01
  3.4052000e-01
  3.5077486e-01
  3.6078000e-01
  3.7057443e-01
  3.8010000e-01
  3.8927249e-01
  3.9804000e-01
  4.0653126e-01
  4.1450000e-01
  4.2196440e-01
  4.2900000e-01
  4.3551483e-01
  4.4142000e-01
  4.4680421e-01
  4.5170000e-01
  4.5580647e-01
  4.5938000e-01
  4.6235956e-01
  4.6464000e-01
  4.6625635e-01
  4.6736000e-01
  4.6832020e-01
  4.7212000e-01
  4.7592342e-01
  4.7920000e-01
  4.8155680e-01
  4.8344000e-01
  4.8453792e-01
  4.8512000e-01
  4.8443619e-01
  4.8352000e-01
  4.8171011e-01
  4.7928000e-01
  4.7623056e-01
  4.7270000e-01
  4.6830823e-01
  4.6348000e-01
  4.5804923e-01
  4.5210000e-01
  4.4574945e-01
  4.3890000e-01
  4.3156943e-01
  4.2374000e-01
  4.1557283e-01
  4.0700000e-01
  3.9805082e-01
  3.8874000e-01
  3.7915204e-01
  3.6934000e-01
  3.5926065e-01
  3.4884000e-01
  3.3824941e-01
  3.2750000e-01
  3.1661512e-01
  3.0550000e-01
  2.9431698e-01
  2.8304000e-01
  2.7169667e-01
  2.6038000e-01
  2.4901351e-01
  2.3772000e-01
  2.2643604e-01
  2.1522000e-01
  2.0414495e-01
  1.9320000e-01
  1.8251648e-01
  1.7196000e-01
  1.6168546e-01
  1.5166000e-01
  1.4183951e-01
  1.3236000e-01
  1.2310502e-01
  1.1412000e-01
  1.0544691e-01
  9.6900000e-02
  8.8735828e-02
  8.0740000e-02
  7.3107555e-02
  6.5720000e-02
  5.8611314e-02
  5.1680000e-02
  4.4984098e-02
  3.8580000e-02
  3.2498101e-02
  2.6600000e-02
  2.0814644e-02
  1.5400000e-02
  1.0167925e-02
  5.1400000e-03
  9.9327966e-04
 -1.6000000e-04
 -2.3466733e-05
 -4.0000000e-05
  1.9904813e-06
  0.0000000e+00
 -3.8292653e-08
 -1.9258334e-20
  7.3666971e-10
  0.0000000e+00
 -1.4171968e-11
  0.0000000e+00
  2.7263871e-13
  0.0000000e+00
 -5.2449926e-15
  2.6366382e-27
  1.0090257e-16
  0.0000000e+00
 -1.9411522e-18
  0.0000000e+00
  3.7343666e-20
  1.8781065e-32
 -7.1841321e-22
  0.0000000e+00
  1.3820752e-23
  0.0000000e+00
 -2.6588206e-25
  0.0000000e+00
  5.1150088e-27
  0.0000000e+00
 -9.8401958e-29
  0.0000000e+00
  1.8930457e-30
  0.0000000e+00
 -3.6418198e-32
  0.0000000e+00
  7.0060916e-34
  0.0000000e+00
 -1.3478240e-35
  0.0000000e+00
  2.5929284e-37
  0.0000000e+00
 -4.9882463e-39
  0.0000000e+00
  9.5963315e-41
  0.0000000e+00
 -1.8461314e-42
  0.0000000e+00
  3.5515666e-44
  0.0000000e+00
 -6.8324634e-46
  0.0000000e+00
  1.3144216e-47
  0.0000000e+00
 -2.5286693e-49
  1.2713620e-61
  4.8646252e-51
  0.0000000e+00
 -9.3585108e-53
  0.0000000e+00
  1.8003797e-54
  9.0545605e-67
 -3.4635500e-56
  0.0000000e+00
  6.6631381e-58
  0.0000000e+00
 -1.2818470e-59
  0.0000000e+00
  2.4660026e-61
 -1.2406280e-73
 -4.7440678e-63
  0.0000000e+00
  9.1265838e-65
  0.0000000e+00
 -1.7557618e-66
  0.0000000e+00
  3.3777147e-68
  0.0000000e+00
 -6.4980092e-70
  0.0000000e+00
  1.2500796e-71
  0.0000000e+00
 -2.4048890e-73
  0.0000000e+00
  4.6264981e-75
  0.0000000e+00
 -8.9004046e-77
  0.0000000e+00
  1.7122497e-78
  0.0000000e+00
 -3.2940066e-80
  0.0000000e+00
  6.3369725e-82
  0.0000000e+00
 -1.2190979e-83
  6.1273780e-96
  2.3367394e-85
  0.0000000e+00
  3.9934295e-86
  0.0000000e+00
 -2.3102573e-84
  0.0000000e+00
  1.2009344e-82
  0.0000000e+00
 -6.2425488e-81
  0.0000000e+00
  3.2449244e-79
  0.0000000e+00
 -1.6867365e-77
  4.4091043e-88
  8.7677847e-76
  0.0000000e+00
 -4.5575613e-74
  0.0000000e+00
  2.3690551e-72
  6.1932851e-83
 -1.2314529e-70
  0.0000000e+00
  6.4011860e-69
  0.0000000e+00
 -3.3273853e-67
  0.0000000e+00
  1.7296002e-65
  0.0000000e+00
 -8.9905937e-64
  0.0000000e+00
  4.6733791e-62
  0.0000000e+00
 -2.4292581e-60
  0.0000000e+00
  1.2627469e-58
  0.0000000e+00
 -6.5638545e-57
  0.0000000e+00
  3.4119416e-55
  0.0000000e+00
 -1.7735532e-53
  0.0000000e+00
  9.2190649e-52
  0.0000000e+00
 -4.7921402e-50
  0.0000000e+00
  2.4909910e-48
  0.0000000e+00
 -1.2948361e-46
  0.0000000e+00
  6.7306567e-45
  0.0000000e+00
 -3.4986467e-43
  9.1461278e-54
  1.8186232e-41
  0.0000000e+00
 -9.4533420e-40
  0.0000000e+00
  4.9139192e-38
  1.2846178e-48
 -2.5542927e-36
  0.0000000e+00
  1.3277408e-34
  0.0000000e+00
 -6.9016978e-33
  0.0000000e+00
  3.5875551e-31
 -9.3787000e-42
 -1.8648385e-29
  0.0000000e+00
  9.6935726e-28
  0.0000000e+00
 -5.0387929e-26
  0.0000000e+00
  2.6192030e-24
  0.0000000e+00
 -1.3614817e-22
  0.0000000e+00
  7.0770854e-21
  0.0000000e+00
 -3.6787229e-19
  0.0000000e+00
  1.9122282e-17
  0.0000000e+00
 -9.9399080e-16
  0.0000000e+00
  5.1668399e-14
  0.0000000e+00
 -2.6857628e-12
  0.0000000e+00
  1.3960800e-10
  0.0000000e+00
 -7.2569300e-09
  1.8970828e-19
  3.7722075e-07
  0.0000000e+00
 -2.9608222e-05
  2.0000000e-05
  2.4942503e-03
  7.7000000e-03
  1.3428591e-02
  1.9620000e-02
  2.6189035e-02
  3.3300000e-02
  4.0936600e-02
  4.9000000e-02
  5.7492749e-02
  6.6460000e-02
  7.5825474e-02
  8.5500000e-02
  9.5627582e-02
  1.0602000e-01
  1.1662527e-01
  1.2748000e-01
  1.3849847e-01
  1.4956000e-01
  1.6072437e-01
  1.7182000e-01
  1.8269659e-01
  1.9340000e-01
  2.0365022e-01
  2.1350000e-01
  2.2278459e-01
  2.3130000e-01
  2.3913870e-01
  2.4628000e-01
  2.5257813e-01
  2.5786000e-01
  2.6220354e-01
  2.6570000e-01
  2.6802798e-01
  2.6946000e-01
  2.6984665e-01
  2.6880000e-01
  2.6688631e-01
  2.6390000e-01
  2.5998031e-01
  2.5474000e-01
  2.4856746e-01
  2.4150000e-01
  2.3361178e-01
  2.2510000e-01
  2.1594516e-01
  2.0632000e-01
  1.9628999e-01
  1.8606000e-01
  1.7555049e-01
  1.6486000e-01
  1.5417957e-01
  1.4350000e-01
  1.3283931e-01
  1.2236000e-01
  1.1208624e-01
  1.0206000e-01
  9.2323684e-02
  8.2880000e-02
  7.3857206e-02
  6.5240000e-02
  5.6974084e-02
  4.9300000e-02
  4.2070407e-02
  3.5340000e-02
  2.9062241e-02
  2.3420000e-02
  1.8223037e-02
  1.3360000e-02
  8.9748090e-03
  5.0400000e-03
  1.5643941e-03
 -1.0000000e-04
  9.1986726e-06
  0.0000000e+00
 -2.2505774e-07
  0.0000000e+00
  4.3296352e-09
  0.0000000e+00
 -8.3293030e-11
  0.0000000e+00
  1.6023818e-12
  0.0000000e+00
 -3.0826440e-14
  0.0000000e+00
  5.9303555e-16
  0.0000000e+00
 -1.1408751e-17
  0.0000000e+00
  2.1948025e-19
 -1.1036164e-31
 -4.2223361e-21
  0.0000000e+00
  8.1228823e-23
  0.0000000e+00
 -1.5626709e-24
  0.0000000e+00
  3.0062485e-26
  0.0000000e+00
 -5.7833904e-28
  0.0000000e+00
  1.1145019e-29
  0.0000000e+00
 -1.2019736e-30
  2.5935492e-41
  5.1357609e-29
  0.0000000e+00
 -2.6693937e-27
  0.0000000e+00
  1.3875711e-25
  3.6274478e-36
 -7.2127005e-24
  0.0000000e+00
  3.7492167e-22
  0.0000000e+00
 -1.9488714e-20
  0.0000000e+00
  1.0130382e-18
 -2.6485532e-29
 -5.2658499e-17
  0.0000000e+00
  2.7372289e-15
  0.0000000e+00
 -1.4228324e-13
  0.0000000e+00
  7.3959914e-12
  0.0000000e+00
 -3.8444927e-10
  0.0000000e+00
  1.9983966e-08
  0.0000000e+00
 -1.0387818e-06
  0.0000000e+00
  6.1496669e-05
 -5.0000000e-04
 -6.0678801e-04
  0.0000000e+00
  8.9800148e-06
  0.0000000e+00
 -1.7275651e-07
  0.0000000e+00
  3.3234700e-09
  0.0000000e+00
 -6.3936539e-11
  3.2144900e-23
  1.2300039e-12
  0.0000000e+00
 -2.3662675e-14
  0.0000000e+00
  4.5521986e-16
  0.0000000e+00
 -8.7574679e-18
  0.0000000e+00
  1.6847517e-19
  0.0000000e+00
 -3.2411063e-21
  0.0000000e+00
  6.2352085e-23
 -3.1354139e-35
 -1.2021381e-24
  0.0000000e+00
  1.5909448e-25
  0.0000000e+00
 -7.0707750e-24
  0.0000000e+00
  3.6752120e-22
  0.0000000e+00
 -1.9104032e-20
  0.0000000e+00
  9.9304213e-19
  0.0000000e+00
 -5.1619087e-17
  1.3494192e-27
  2.6831995e-15
  0.0000000e+00
 -1.3947475e-13
  0.0000000e+00
  7.2500040e-12
  0.0000000e+00
 -3.7686073e-10
  0.0000000e+00
  1.9589508e-08
  0.0000000e+00
 -1.0182776e-06
  0.0000000e+00
 -2.1670692e-03
 -5.3000000e-03
 -7.5563856e-03
 -9.4000000e-03
 -1.1205880e-02
 -1.2940000e-02
 -1.4785351e-02
 -1.6800000e-02
 -1.9360849e-02
 -2.2360000e-02
 -2.6218010e-02
 -3.0900000e-02
 -3.6822614e-02
 -4.4200000e-02
 -5.3601050e-02
 -6.5120000e-02
 -7.8500273e-02
 -9.3500000e-02
 -1.0972976e-01
 -1.2650000e-01
 -1.4312465e-01
 -1.5858000e-01
 -1.7166827e-01
 -1.8116000e-01
 -1.8554036e-01
 -1.8202000e-01
 -1.7054575e-01
 -1.5000000e-01
 -1.1700825e-01
 -7.3060000e-02
 -1.7472977e-02
  5.2300000e-02
  1.3544055e-01
  2.3088000e-01
  3.3784942e-01
  4.5374000e-01
  5.7351223e-01
  6.9420000e-01
  8.1121222e-01
  9.1982000e-01
  1.0160447e+00
  1.0914200e+00
  1.1412826e+00
  1.1641200e+00
  1.1580159e+00
  1.1210800e+00
  1.0599973e+00
  9.7670000e-01
  8.7093778e-01
  7.5156000e-01
  6.2288564e-01
  4.9072000e-01
  3.6171653e-01
  2.3852000e-01
  1.2451478e-01
  2.3120000e-02
 -6.5770221e-02
 -1.4120000e-01
 -1.9950577e-01
 -2.4390000e-01
 -2.7508462e-01
 -2.9194000e-01
 -2.9711150e-01
 -2.9266000e-01
 -2.8011748e-01
 -2.6096000e-01
 -2.3781683e-01
 -2.1170000e-01
 -1.8427231e-01
 -1.5698000e-01
 -1.3079073e-01
 -1.0722000e-01
 -8.6929725e-02
 -6.9340000e-02
 -5.4613551e-02
 -4.2780000e-02
 -3.3053148e-02
 -2.5200000e-02
 -1.9437775e-02
 -1.4920000e-02
 -1.1390042e-02
 -8.7200000e-03
 -6.5100662e-03
 -4.4800000e-03
 -2.5965164e-03
 -8.6000000e-04
  2.6417424e-05
  0.0000000e+00
  2.8103200e-06
  0.0000000e+00
 -5.4064617e-08
  0.0000000e+00
  1.0400890e-09
  0.0000000e+00
 -2.0009114e-11
  0.0000000e+00
  3.8493305e-13
  0.0000000e+00
 -7.4052984e-15
  0.0000000e+00
  1.4246229e-16
  0.0000000e+00
 -2.7406734e-18
  0.0000000e+00
  5.2724763e-20
  0.0000000e+00
 -1.0143130e-21
  5.0998625e-34
  1.9513238e-23
  0.0000000e+00
 -3.7539346e-25
  0.0000000e+00
  7.2217768e-27
  0.0000000e+00
 -1.3893172e-28
  0.0000000e+00
  2.6727527e-30
  0.0000000e+00
 -5.1418113e-32
  0.0000000e+00
  9.8917583e-34
 -4.9746095e-46
 -1.9029652e-35
  0.0000000e+00
  3.6609029e-37
  0.0000000e+00
 -7.0428034e-39
  0.0000000e+00
  1.3548865e-40
  0.0000000e+00
 -2.6065153e-42
  0.0000000e+00
  5.0143846e-44
  0.0000000e+00
 -9.6466168e-46
  4.8506463e-58
  1.8561553e-47
  0.0000000e+00
 -5.3905935e-49
  0.0000000e+00
  9.4695335e-48
  0.0000000e+00
 -4.9187668e-46
  0.0000000e+00
  2.5568118e-44
  0.0000000e+00
 -1.3290503e-42
  3.4741765e-53
  6.9085045e-41
  0.0000000e+00
 -3.5910933e-39
  0.0000000e+00
  1.8666777e-37
  0.0000000e+00
 -9.7031328e-36
  0.0000000e+00
  5.0437624e-34
  0.0000000e+00
 -2.6217861e-32
  0.0000000e+00
  1.3628244e-30
 -3.5629877e-41
 -7.0840651e-29
  0.0000000e+00
  3.6823510e-27
  0.0000000e+00
 -1.9141141e-25
  5.0038067e-36
  9.9497111e-24
  0.0000000e+00
 -5.1719357e-22
  0.0000000e+00
  2.6884116e-20
  0.0000000e+00
 -1.3974568e-18
  3.6533726e-29
  7.2640871e-17
  0.0000000e+00
 -3.7759278e-15
  0.0000000e+00
  1.9627561e-13
  0.0000000e+00
 -1.0202556e-11
  0.0000000e+00
  5.3033662e-10
  0.0000000e+00
 -2.7567302e-08
  0.0000000e+00
  1.4329693e-06
  0.0000000e+00
  5.8551316e-04
  2.3000000e-03
  4.0268826e-03
  5.9200000e-03
  7.8315900e-03
  9.8800000e-03
  1.2122939e-02
  1.4500000e-02
  1.7043077e-02
  1.9720000e-02
  2.2524576e-02
  2.5580000e-02
  2.8811495e-02
  3.2200000e-02
  3.5832692e-02
  3.9620000e-02
  4.3626009e-02
  4.8000000e-02
  5.2479862e-02
  5.7280000e-02
  6.2303667e-02
  6.7600000e-02
  7.3124462e-02
  7.8920000e-02
  8.5064333e-02
  9.1500000e-02
  9.8190224e-02
  1.0510000e-01
  1.1244150e-01
  1.2000000e-01
  1.2784693e-01
  1.3594000e-01
  1.4431049e-01
  1.5288000e-01
  1.6182254e-01
  1.7108000e-01
  1.8052254e-01
  1.9000000e-01
  1.9989021e-01
  2.1000000e-01
  2.2019631e-01
  2.3048000e-01
  2.4101188e-01
  2.5166000e-01
  2.6229096e-01
  2.7304000e-01
  2.8379813e-01
  2.9460000e-01
  3.0537860e-01
  3.1602000e-01
  3.2658489e-01
  3.3706000e-01
  3.4737453e-01
  3.5746000e-01
  3.6735942e-01
  3.7694000e-01
  3.8624827e-01
  3.9520000e-01
  4.0370316e-01
  4.1190000e-01
  4.1954481e-01
  4.2672000e-01
  4.3336408e-01
  4.3954000e-01
  4.4508808e-01
  4.5010000e-01
  4.5449096e-01
  4.5830000e-01
  4.6142466e-01
  4.6392000e-01
  4.6580697e-01
  4.6710000e-01
  4.6787558e-01
  4.7064000e-01
  4.7482813e-01
  4.7812000e-01
  4.8079676e-01
  4.8300000e-01
  4.8422018e-01
  4.8496000e-01
  4.8474905e-01
  4.8392000e-01
  4.8234930e-01
  4.8016000e-01
  4.7735714e-01
  4.7390000e-01
  4.6981684e-01
  4.6520000e-01
  4.5991954e-01
  4.5410000e-01
  4.4795449e-01
  4.4124000e-01
  4.3404964e-01
  4.2638000e-01
  4.1836918e-01
  4.0988000e-01
  4.0107027e-01
  3.9190000e-01
  3.8237194e-01
  3.7262000e-01
  3.6268615e-01
  3.5234000e-01
  3.4178846e-01
  3.3110000e-01
  3.2027399e-01
  3.0922000e-01
  2.9805643e-01
  2.8680000e-01
  2.7549437e-01
  2.6414000e-01
  2.5279864e-01
  2.4148000e-01
  2.3019874e-01
  2.1894000e-01
  2.0781165e-01
  1.9684000e-01
  1.8608041e-01
  1.7540000e-01
  1.6510461e-01
  1.5498000e-01
  1.4506012e-01
  1.3548000e-01
  1.2619643e-01
  1.1704000e-01
  1.0831575e-01
  9.9740000e-02
  9.1459722e-02
  8.3300000e-02
  7.5646192e-02
  6.8160000e-02
  6.0948276e-02
  5.3960000e-02
  4.7210971e-02
  4.0660000e-02
  3.4486252e-02
  2.8560000e-02
  2.2693900e-02
  1.7200000e-02
  1.1873453e-02
  6.8200000e-03
  1.8865594e-03
 -4.0000000e-05
 -5.7038945e-05
 -8.0000000e-05
  9.4657894e-06
 -4.7628568e-18
 -1.8210178e-07
  0.0000000e+00
  3.5032534e-09
  0.0000000e+00
 -6.7395191e-11
  0.0000000e+00
  1.2965410e-12
  0.0000000e+00
 -2.4942709e-14
  0.0000000e+00
  4.7984501e-16
  0.0000000e+00
 -9.2312038e-18
  4.6448130e-30
  1.7758885e-19
  0.0000000e+00
 -3.4164341e-21
  0.0000000e+00
  6.5724972e-23
  0.0000000e+00
 -1.2644096e-24
  0.0000000e+00
  2.4324567e-26
  0.0000000e+00
 -4.6795327e-28
  0.0000000e+00
  9.0024318e-30
 -4.5297858e-42
 -1.7318776e-31
  0.0000000e+00
  3.3317665e-33
  0.0000000e+00
 -6.4096145e-35
  0.0000000e+00
  1.2330744e-36
  0.0000000e+00
 -2.3721745e-38
  0.0000000e+00
  4.5635623e-40
  0.0000000e+00
 -8.7793293e-42
  0.0000000e+00
  1.6889574e-43
  0.0000000e+00
 -3.2491971e-45
  0.0000000e+00
  6.2507685e-47
  0.0000000e+00
 -1.2025157e-48
  0.0000000e+00
  2.3133861e-50
  0.0000000e+00
 -4.4504660e-52
  2.2376115e-64
  8.5617559e-54
  0.0000000e+00
 -1.6471009e-55
  0.0000000e+00
  3.1686740e-57
  0.0000000e+00
 -6.0958590e-59
  0.0000000e+00
  1.1727144e-60
  0.0000000e+00
 -2.2560547e-62
  0.0000000e+00
  4.3401725e-64
 -2.1843288e-76
 -8.3495745e-66
  0.0000000e+00
  1.6062817e-67
  0.0000000e+00
 -3.0901464e-69
  1.5534983e-81
  5.9447886e-71
  0.0000000e+00
 -1.1436517e-72
  0.0000000e+00
  2.2001441e-74
  0.0000000e+00
 -4.2326123e-76
  2.1293998e-88
  8.1426515e-78
  0.0000000e+00
 -1.5664740e-79
  0.0000000e+00
  3.0135650e-81
 -1.5149156e-93
 -5.7974603e-83
  0.0000000e+00
  1.1143928e-84
  0.0000000e+00
  2.6177195e-86
 -1.2346049e-96
 -2.4756069e-84
  0.0000000e+00
  1.2870538e-82
  0.0000000e+00
 -6.6902044e-81
  0.0000000e+00
  3.4776192e-79
  0.0000000e+00
 -1.8076930e-77
  0.0000000e+00
  9.3965258e-76
  0.0000000e+00
 -4.8843857e-74
  1.2768002e-84
  2.5389409e-72
  0.0000000e+00
 -1.3197608e-70
  0.0000000e+00
  6.8602175e-69
  0.0000000e+00
 -3.5659933e-67
  0.0000000e+00
  1.8536305e-65
  0.0000000e+00
 -9.6353126e-64
  0.0000000e+00
  5.0085089e-62
 -1.3095644e-72
 -2.6034611e-60
  0.0000000e+00
  1.3532989e-58
  0.0000000e+00
 -7.0345510e-57
  1.8389502e-67
  3.6566132e-55
  0.0000000e+00
 -1.9007354e-53
  0.0000000e+00
  9.8801675e-52
  0.0000000e+00
 -5.1357864e-50
  0.0000000e+00
  2.6696209e-48
  0.0000000e+00
 -1.3876893e-46
  0.0000000e+00
  7.2133147e-45
  0.0000000e+00
 -3.7495359e-43
  0.0000000e+00
  1.9490374e-41
  0.0000000e+00
 -1.0131245e-39
  2.6486029e-50
  5.2662982e-38
  0.0000000e+00
 -2.7374620e-36
  0.0000000e+00
  1.4229536e-34
  0.0000000e+00
 -7.3966212e-33
  0.0000000e+00
  3.8448201e-31
  0.0000000e+00
 -1.9985668e-29
  0.0000000e+00
  1.0388702e-27
 -2.7158621e-38
 -5.4001267e-26
  0.0000000e+00
  2.8070270e-24
  0.0000000e+00
 -1.4591140e-22
  3.8144198e-33
  7.5845859e-21
  0.0000000e+00
 -3.9425256e-19
  0.0000000e+00
  2.0493548e-17
  0.0000000e+00
 -1.0652703e-15
  2.7848845e-26
  5.5373560e-14
  0.0000000e+00
 -2.8783599e-12
  0.0000000e+00
  1.4961934e-10
 -3.9110899e-21
 -7.7773273e-09
  0.0000000e+00
  4.0427140e-07
  0.0000000e+00
 -2.6014335e-05
 -6.0000000e-05
  1.0573412e-03
  5.8600000e-03
  1.1479274e-02
  1.7500000e-02
  2.3950429e-02
  3.0900000e-02
  3.8308418e-02
  4.6260000e-02
  5.4636817e-02
  6.3420000e-02
  7.2637100e-02
  8.2260000e-02
  9.2224008e-02
  1.0250000e-01
  1.1308198e-01
  1.2384000e-01
  1.3481797e-01
  1.4586000e-01
  1.5700092e-01
  1.6814000e-01
  1.7911412e-01
  1.8984000e-01
  2.0027228e-01
  2.1030000e-01
  2.1976212e-01
  2.2850000e-01
  2.3664502e-01
  2.4400000e-01
  2.5052675e-01
  2.5622000e-01
  2.6091905e-01
  2.6458000e-01
  2.6736275e-01
  2.6910000e-01
  2.6988023e-01
  2.6920000e-01
  2.6771545e-01
  2.6500000e-01
  2.6137367e-01
  2.5658000e-01
  2.5080846e-01
  2.4390000e-01
  2.3628620e-01
  2.2810000e-01
  2.1902650e-01
  2.0956000e-01
  1.9967572e-01
  1.8950000e-01
  1.7907354e-01
  1.6842000e-01
  1.5774023e-01
  1.4706000e-01
  1.3638682e-01
  1.2580000e-01
  1.1550246e-01
  1.0538000e-01
  9.5522834e-02
  8.5980000e-02
  7.6837690e-02
  6.8080000e-02
  5.9642260e-02
  5.1820000e-02
  4.4434770e-02
  3.7500000e-02
  3.1109697e-02
  2.5260000e-02
  1.9900974e-02
  1.4920000e-02
  1.0424669e-02
  6.2800000e-03
  2.5562553e-03
  3.0000000e-04
 -4.7442763e-05
  2.0095037e-17
  7.6841434e-07
  0.0000000e+00
 -1.4782668e-08
  0.0000000e+00
  2.8438729e-10
  0.0000000e+00
 -5.4710103e-12
  2.7502101e-24
  1.0525068e-13
  0.0000000e+00
 -2.0248005e-15
  0.0000000e+00
  3.8952883e-17
 -1.9599091e-29
 -7.4937114e-19
  0.0000000e+00
  1.4416317e-20
  0.0000000e+00
 -2.7733947e-22
  0.0000000e+00
  5.3354252e-24
  0.0000000e+00
 -1.0264230e-25
  0.0000000e+00
  1.9746212e-27
  0.0000000e+00
 -3.8000086e-29
  0.0000000e+00
  1.3832451e-30
  0.0000000e+00
 -3.3928657e-29
  0.0000000e+00
  1.7629069e-27
 -4.6084081e-38
 -9.1637231e-26
  0.0000000e+00
  4.7633731e-24
  0.0000000e+00
 -2.4760376e-22
  0.0000000e+00
  1.2870632e-20
  0.0000000e+00
 -6.6902528e-19
  0.0000000e+00
  3.4776444e-17
  0.0000000e+00
 -1.8077060e-15
  4.7259155e-26
  9.3965938e-14
  0.0000000e+00
 -4.8844211e-12
  0.0000000e+00
  2.5389593e-10
 -6.6373502e-21
 -1.3197704e-08
  0.0000000e+00
  6.8602671e-07
  0.0000000e+00
 -3.3160191e-05
  1.0000000e-04
 -1.0088561e-03
 -2.3071822e-16
 -8.8233395e-06
  0.0000000e+00
  1.6974240e-07
  0.0000000e+00
 -3.2654851e-09
  1.6412110e-21
  6.2821032e-11
  0.0000000e+00
 -1.2085439e-12
  0.0000000e+00
  2.3249830e-14
 -1.1683926e-26
 -4.4727759e-16
  0.0000000e+00
  8.6046754e-18
  0.0000000e+00
 -1.6553577e-19
  0.0000000e+00
  3.1845583e-21
  0.0000000e+00
 -6.1264777e-23
  0.0000000e+00
  1.2100745e-24
  0.0000000e+00
 -1.6590978e-24
  4.2794163e-35
  8.5063014e-23
  0.0000000e+00
 -4.4216176e-21
  0.0000000e+00
  2.2983905e-19
 -6.0095424e-30
 -1.1947209e-17
  0.0000000e+00
  6.2102503e-16
  0.0000000e+00
 -3.2281355e-14
  0.0000000e+00
  1.6780094e-12
 -4.3871013e-23
 -8.7224208e-11
  0.0000000e+00
  4.5339808e-09
  0.0000000e+00
 -2.3567978e-07
  6.1605235e-18
  1.2250814e-05
  0.0000000e+00
 -9.1430667e-04
 -4.5000000e-03
 -6.8583038e-03
 -8.8000000e-03
 -1.0601397e-02
 -1.2380000e-02
 -1.4124078e-02
 -1.6120000e-02
 -1.8486550e-02
 -2.1200000e-02
 -2.4847838e-02
 -2.9300000e-02
 -3.4610873e-02
 -4.1500000e-02
 -5.0359271e-02
 -6.1040000e-02
 -7.3722054e-02
 -8.8420000e-02
 -1.0422894e-01
 -1.2090000e-01
 -1.3762288e-01
 -1.5354000e-01
 -1.6784614e-01
 -1.7856000e-01
 -1.8443296e-01
 -1.8414000e-01
 -1.7593512e-01
 -1.5740000e-01
 -1.2894845e-01
 -9.0100000e-02
 -3.6965325e-02
  2.8100000e-02
  1.0548783e-01
  1.9758000e-01
  3.0160316e-01
  4.1438000e-01
  5.3323771e-01
  6.5400000e-01
  7.7266840e-01
  8.8590000e-01
  9.8518557e-01
  1.0678600e+00
  1.1293495e+00
  1.1600400e+00
  1.1617373e+00
  1.1365600e+00
  1.0845503e+00
  1.0056600e+00
  9.0772812e-01
  7.9360000e-01
  6.6630249e-01
  5.3476000e-01
  4.0388468e-01
  2.7856000e-01
  1.6192414e-01
  5.5440000e-02
 -3.8549742e-02
 -1.1684000e-01
 -1.8137005e-01
 -2.3190000e-01
 -2.6572257e-01
 -2.8722000e-01
 -2.9721861e-01
 -2.9520000e-01
 -2.8472480e-01
 -2.6792000e-01
 -2.4614167e-01
 -2.2054000e-01
 -1.9347355e-01
 -1.6590000e-01
 -1.3939373e-01
 -1.1486000e-01
 -9.3187644e-02
 -7.4860000e-02
 -5.9348788e-02
 -4.6460000e-02
 -3.5925387e-02
 -2.7720000e-02
 -2.1221113e-02
 -1.6200000e-02
 -1.2501719e-02
 -9.5600000e-03
 -7.2045120e-03
 -5.1400000e-03
 -3.2086568e-03
 -1.4200000e-03
 -5.5334728e-05
  4.0000000e-05
 -3.9373273e-06
  0.0000000e+00
  7.5745855e-08
 -3.8098864e-20
 -1.4571902e-09
  0.0000000e+00
  2.8033259e-11
  0.0000000e+00
 -5.3930065e-13
  0.0000000e+00
  1.0375005e-14
 -5.2189927e-27
 -1.9959316e-16
  0.0000000e+00
  3.8397506e-18
  0.0000000e+00
 -7.3868686e-20
  3.7155349e-32
  1.4210774e-21
  0.0000000e+00
 -2.7338526e-23
  0.0000000e+00
  5.2593545e-25
 -2.6466490e-37
 -1.0117886e-26
  0.0000000e+00
  1.9464675e-28
  0.0000000e+00
 -3.7445921e-30
  0.0000000e+00
  7.2038038e-32
  0.0000000e+00
 -1.3858596e-33
  0.0000000e+00
  2.6661009e-35
  0.0000000e+00
 -5.1290147e-37
  2.5781702e-49
  9.8671403e-39
  0.0000000e+00
 -1.8982293e-40
  0.0000000e+00
  3.6517919e-42
 -1.8364817e-54
 -7.0252758e-44
  0.0000000e+00
  1.3515147e-45
  0.0000000e+00
 -2.6008213e-47
  0.0000000e+00
  9.1233975e-49
 -1.1025192e-59
 -2.1433454e-47
  0.0000000e+00
  1.1136273e-45
  0.0000000e+00
 -5.7887184e-44
  1.5132181e-54
  3.0090200e-42
  0.0000000e+00
 -1.5641115e-40
  0.0000000e+00
  8.1303708e-39
 -2.1255536e-49
 -4.2262287e-37
  0.0000000e+00
  2.1968259e-35
  0.0000000e+00
 -1.1419268e-33
  0.0000000e+00
  5.9358228e-32
 -1.5518046e-42
 -3.0854859e-30
  0.0000000e+00
  1.6038591e-28
  0.0000000e+00
 -8.3369818e-27
  2.1795546e-37
  4.3336267e-25
  0.0000000e+00
 -2.2526522e-23
  0.0000000e+00
  1.1709458e-21
  0.0000000e+00
 -6.0866653e-20
  0.0000000e+00
  3.1638950e-18
  0.0000000e+00
 -1.6446167e-16
  0.0000000e+00
  8.5488432e-15
 -2.2348352e-25
 -4.4437538e-13
  0.0000000e+00
  2.3098971e-11
  0.0000000e+00
 -1.2007021e-09
  3.1386298e-20
  6.2413411e-08
  0.0000000e+00
 -3.2442967e-06
  0.0000000e+00
  2.5114101e-04
  1.7000000e-03
  3.4339115e-03
  5.2800000e-03
  7.1979586e-03
  9.1600000e-03
  1.1352242e-02
  1.3700000e-02
  1.6182974e-02
  1.8800000e-02
  2.1580612e-02
  2.4540000e-02
  2.7712696e-02
  3.1040000e-02
  3.4611675e-02
  3.8340000e-02
  4.2235198e-02
  4.6520000e-02
  5.0973020e-02
  5.5600000e-02
  6.0637767e-02
  6.5800000e-02
  7.1248108e-02
  7.6940000e-02
  8.3010611e-02
  8.9300000e-02
  9.5930098e-02
  1.0278000e-01
  1.0998179e-01
  1.1740000e-01
  1.2522416e-01
  1.3322000e-01
  1.4148930e-01
  1.4998000e-01
  1.5882497e-01
  1.6796000e-01
  1.7735746e-01
  1.8684000e-01
  1.9656218e-01
  2.0660000e-01
  2.1679921e-01
  2.2704000e-01
  2.3746411e-01
  2.4812000e-01
  2.5872719e-01
  2.6948000e-01
  2.8019222e-01
  2.9100000e-01
  3.0179475e-01
  3.1250000e-01
  3.2306062e-01
  3.3358000e-01
  3.4397556e-01
  3.5412000e-01
  3.6407514e-01
  3.7378000e-01
  3.8320197e-01
  3.9224000e-01
  4.0087516e-01
  4.0930000e-01
  4.1702708e-01
  4.2436000e-01
  4.3122934e-01
  4.3756000e-01
  4.4326487e-01
  4.4850000e-01
  4.5314256e-01
  4.5706000e-01
  4.6044471e-01
  4.6320000e-01
  4.6524478e-01
  4.6670000e-01
  4.6739937e-01
  4.6944000e-01
  4.7348043e-01
  4.7704000e-01
  4.8004808e-01
  4.8228000e-01
  4.8387934e-01
  4.8480000e-01
  4.8498621e-01
  4.8416000e-01
  4.8301772e-01
  4.8096000e-01
  4.7833752e-01
  4.7510000e-01
  4.7130601e-01
  4.6676000e-01
  4.6174742e-01
  4.5610000e-01
  4.5003560e-01
  4.4352000e-01
  4.3653412e-01
  4.2898000e-01
  4.2106287e-01
  4.1276000e-01
  4.0406147e-01
  3.9498000e-01
  3.8557568e-01
  3.7590000e-01
  3.6601830e-01
  3.5582000e-01
  3.4532787e-01
  3.3468000e-01
  3.2388760e-01
  3.1294000e-01
  3.0178215e-01
  2.9056000e-01
  2.7927835e-01
  2.6790000e-01
  2.5659601e-01
  2.4524000e-01
  2.3396162e-01
  2.2268000e-01
  2.1151208e-01
  2.0048000e-01
  1.8963010e-01
  1.7896000e-01
  1.6852014e-01
  1.5830000e-01
  1.4835999e-01
  1.3864000e-01
  1.2927763e-01
  1.2004000e-01
  1.1121083e-01
  1.0258000e-01
  9.4164406e-02
  8.6020000e-02
  7.8177541e-02
  7.0600000e-02
  6.3328486e-02
  5.6280000e-02
  4.9428662e-02
  4.2800000e-02
  3.6526113e-02
  3.0520000e-02
  2.4623468e-02
  1.9000000e-02
  1.3611030e-02
  8.5000000e-03
  3.5104871e-03
  2.8000000e-04
 -8.3856894e-05
 -8.0000000e-05
 -1.2428577e-05
  0.0000000e+00
  1.4291013e-07
  0.0000000e+00
 -2.7492888e-09
  1.3823578e-21
  5.2890505e-11
 -2.6586247e-23
 -1.0175015e-12
  0.0000000e+00
  1.9574579e-14
  0.0000000e+00
 -3.7657353e-16
  1.8942759e-28
  7.2444788e-18
  0.0000000e+00
 -1.3936846e-19
  0.0000000e+00
  2.6811546e-21
 -1.3478428e-33
 -5.1579748e-23
  0.0000000e+00
  9.9228534e-25
  0.0000000e+00
 -1.9089473e-26
  0.0000000e+00
  3.6724111e-28
 -1.8469955e-40
 -7.0649427e-30
  0.0000000e+00
  1.3591457e-31
  0.0000000e+00
 -2.6147090e-33
  1.3144180e-45
  5.0301475e-35
  0.0000000e+00
 -9.6769406e-37
  0.0000000e+00
  1.8616389e-38
 -9.3653675e-51
 -3.5813997e-40
  0.0000000e+00
  6.8898561e-42
  0.0000000e+00
 -1.3254627e-43
  0.0000000e+00
  2.5499101e-45
 -1.2821204e-57
 -4.9054880e-47
  0.0000000e+00
  9.4371222e-49
  0.0000000e+00
 -1.8155029e-50
  9.1322749e-63
  3.4926438e-52
  0.0000000e+00
 -6.7191084e-54
  0.0000000e+00
  1.2926145e-55
 -6.4985292e-68
 -2.4867170e-57
  0.0000000e+00
  4.7839180e-59
  0.0000000e+00
 -9.2032470e-61
  0.0000000e+00
  1.7705102e-62
 -8.9000346e-75
 -3.4060875e-64
  0.0000000e+00
  6.5525924e-66
  0.0000000e+00
 -1.2605803e-67
  6.3394875e-80
  2.4250900e-69
  0.0000000e+00
 -4.6653607e-71
  0.0000000e+00
  8.9751679e-73
 -4.5113195e-85
 -1.7266326e-74
  0.0000000e+00
  3.3216762e-76
  0.0000000e+00
 -6.3902030e-78
  0.0000000e+00
  1.2293400e-79
 -6.1780941e-92
 -2.3649903e-81
  0.0000000e+00
  4.5497415e-83
  0.0000000e+00
 -8.7527411e-85
  4.4007758e-97
  1.6838424e-86
  0.0000000e+00
 -3.2393569e-88
  0.0000000e+00
  6.2318380e-90
  0.0000000e+00
 -1.1988739e-91
 6.0319374e-104
  2.3063800e-93
  0.0000000e+00
 -4.4369877e-95
  0.0000000e+00
  8.5358266e-97
-4.2937267e-109
 -1.6421126e-98
  0.0000000e+00
 3.1590776e-100
  0.0000000e+00
-6.0773977e-102
 3.0549510e-114
 1.1691629e-103
  0.0000000e+00
-2.2492223e-105
  0.0000000e+00
 4.3270282e-107
  0.0000000e+00
-8.3242878e-109
 4.1885954e-121
 1.6014170e-110
  0.0000000e+00
-3.0807879e-112
  0.0000000e+00
 5.9267848e-114
-2.9805532e-126
-1.1401881e-115
  0.0000000e+00
 2.1934810e-117
  0.0000000e+00
-4.2197938e-119
 2.1216014e-131
 8.1179914e-121
  0.0000000e+00
-1.5617300e-122
  0.0000000e+00
 3.0044384e-124
  0.0000000e+00
-5.7799045e-126
 2.9085716e-138
 1.1119315e-127
  0.0000000e+00
-2.1391211e-129
  0.0000000e+00
 4.1152169e-131
-2.0698144e-143
-7.9168076e-133
  0.0000000e+00
 1.5230265e-134
  0.0000000e+00
-2.9299810e-136
 1.4734080e-148
 5.6366642e-138
  0.0000000e+00
-1.0843751e-139
  0.0000000e+00
 2.0861084e-141
  0.0000000e+00
-4.0132319e-143
 2.0197187e-155
 7.7213752e-145
  0.0000000e+00
-1.8832623e-146
 7.2835359e-162