Patient Number 0019CF1 Lead Number 1 Time Step .0011 Data Points 5455
0.0000000e+00
-2.8368454e-60
 9.4905372e-60
 3.3577933e-59
-5.0506163e-58
 1.1817266e-57
 1.4005970e-56
-1.0511312e-55
 0.0000000e+00
 4.0855249e-54
-1.8370728e-53
-6.5670171e-53
 9.8801675e-52
-2.3117451e-51
-2.7399094e-50
 2.0562690e-49
 0.0000000e+00
-7.9922835e-48
 3.5937627e-47
 1.2846688e-46
-1.9328018e-45
 4.5223376e-45
 5.3599314e-44
-4.0225639e-43
 0.0000000e+00
 1.5634857e-41
-7.0302768e-41
-2.5131256e-40
 3.7810320e-39
-8.8467957e-39
-1.0485334e-37
 7.8691165e-37
 0.0000000e+00
-3.0585595e-35
 1.3752937e-34
 4.9162869e-34
-7.3966212e-33
 1.7306491e-32
 2.0511871e-31
-1.5393912e-30
 0.0000000e+00
 5.9832886e-29
-2.6904100e-28
-9.6174567e-28
 1.4469596e-26
-3.3855719e-26
-4.0126224e-25
 3.0114248e-24
 0.0000000e+00
-1.1704772e-22
 5.2630984e-22
 1.8814092e-21
-2.8306060e-20
 6.6230048e-20
 7.8496685e-19
-5.8910817e-18
 0.0000000e+00
 2.2897391e-16
-1.0295905e-15
-3.6804955e-15
 5.5373560e-14
-1.2956213e-13
-1.5355867e-12
 1.1524393e-11
 0.0000000e+00
-4.4792883e-10
 2.0141302e-09
 7.1999471e-09
-1.0832419e-07
 2.5345515e-07
 3.0039823e-06
-3.2310150e-05
-6.0000000e-05
 7.5828934e-04
 4.9779949e-03
 1.0053350e-02
 1.5433556e-02
 2.1198251e-02
 2.7372711e-02
 3.3923913e-02
 4.0900000e-02
 4.8317531e-02
 5.6072577e-02
 6.4168676e-02
 7.2637100e-02
 8.1447600e-02
 9.0537287e-02
 9.9901736e-02
 1.0954000e-01
 1.1932676e-01
 1.2930694e-01
 1.3941948e-01
 1.4956312e-01
 1.5979067e-01
 1.6999056e-01
 1.8001203e-01
 1.8984000e-01
 1.9941846e-01
 2.0865821e-01
 2.1747463e-01
 2.2565177e-01
 2.3332717e-01
 2.4043768e-01
 2.4681591e-01
 2.5252000e-01
 2.5750971e-01
 2.6158097e-01
 2.6484807e-01
 2.6736275e-01
 2.6898459e-01
 2.6987791e-01
 2.6945596e-01
 2.6828000e-01
 2.6631738e-01
 2.6330917e-01
 2.5950875e-01
 2.5480465e-01
 2.4914575e-01
 2.4268073e-01
 2.3562363e-01
 2.2810000e-01
 2.1979712e-01
 2.1116727e-01
 2.0218821e-01
 1.9291071e-01
 1.8345204e-01
 1.7376426e-01
 1.6396908e-01
 1.5418000e-01
 1.4438909e-01
 1.3461262e-01
 1.2493199e-01
 1.1550246e-01
 1.0621335e-01
 9.7147595e-02
 8.8329383e-02
 7.9840000e-02
 7.1689894e-02
 6.3803256e-02
 5.6302516e-02
 4.9322212e-02
 4.2648060e-02
 3.6397861e-02
 3.0601575e-02
 2.5260000e-02
 2.0331850e-02
 1.5719173e-02
 1.1513057e-02
 7.6085054e-03
 4.1106961e-03
 1.0701151e-03
 4.7364827e-06
 0.0000000e+00
-3.0765816e-06
 4.0994417e-07
 3.4588240e-08
-1.4782668e-08
 9.8255452e-10
 2.7486212e-10
-6.1127463e-11
 0.0000000e+00
 1.5726983e-12
-2.0955677e-13
-1.7680944e-14
 7.5566585e-15
-5.0226583e-16
-1.4050503e-16
 3.1247361e-17
 0.0000000e+00
-8.0393770e-19
 1.0712200e-19
 9.0382098e-21
-3.8628405e-21
 2.5675010e-22
 7.1823877e-23
-1.5973141e-23
 0.0000000e+00
 4.1095983e-25
-5.4759018e-26
-4.6201853e-27
 1.9746212e-27
-1.3124683e-28
-3.6719589e-29
 8.1981988e-30
 1.8509488e-43
-1.4923224e-30
 5.7936651e-30
 2.0613016e-29
-3.1009114e-28
 7.2554380e-28
 8.5992356e-27
-6.4536227e-26
 0.0000000e+00
 2.5083869e-24
-1.1279063e-23
-4.0319470e-23
 6.0661196e-22
-1.4193406e-21
-1.6822203e-20
 1.2624861e-19
 0.0000000e+00
-4.9070168e-18
 2.2064600e-17
 7.8874721e-17
-1.1866810e-15
 2.7765765e-15
 3.2908334e-14
-2.4697308e-13
 0.0000000e+00
 9.5993222e-12
-4.3163742e-11
-1.5429820e-10
 2.3214376e-09
-5.4316611e-09
-6.4376730e-08
 4.8313960e-07
 0.0000000e+00
-1.7723929e-05
 1.6631381e-04
-1.3018269e-03
-3.6512984e-03
-5.8839941e-03
-7.9240331e-03
-9.5448115e-03
-1.1200000e-02
-1.2795051e-02
-1.4450622e-02
-1.6297389e-02
-1.8486550e-02
-2.0949351e-02
-2.4172313e-02
-2.8125356e-02
-3.2700000e-02
-3.8397629e-02
-4.5694863e-02
-5.4592204e-02
-6.4989737e-02
-7.7274288e-02
-9.0987120e-02
-1.0558656e-01
-1.2090000e-01
-1.3624911e-01
-1.5098317e-01
-1.6444671e-01
-1.7555456e-01
-1.8263895e-01
-1.8512122e-01
-1.8199806e-01
-1.7078000e-01
-1.5126626e-01
-1.2321115e-01
-8.6217255e-02
-3.6965325e-02
 2.2196708e-02
 9.1751720e-02
 1.7311434e-01
 2.6584000e-01
 3.6650469e-01
 4.7320186e-01
 5.8366113e-01
 6.9395327e-01
 8.0165974e-01
 9.0354227e-01
 9.9278098e-01
 1.0678600e+00
 1.1251265e+00
 1.1572997e+00
 1.1638452e+00
 1.1477594e+00
 1.1102487e+00
 1.0474940e+00
 9.6705346e-01
 8.7136000e-01
 7.6264485e-01
 6.4453625e-01
 5.2377072e-01
 4.0388468e-01
 2.8868403e-01
 1.8070388e-01
 8.1082573e-02
-9.2000000e-03
-8.5789816e-02
-1.5088621e-01
-2.0421319e-01
-2.4479048e-01
-2.7225276e-01
-2.8962756e-01
-2.9755805e-01
-2.9520000e-01
-2.8586006e-01
-2.7107666e-01
-2.5208950e-01
-2.2928863e-01
-2.0484732e-01
-1.7968742e-01
-1.5466969e-01
-1.3094000e-01
-1.0915145e-01
-8.9893920e-02
-7.3467851e-02
-5.9348788e-02
-4.7450221e-02
-3.7470966e-02
-2.9623736e-02
-2.3200000e-02
-1.8125682e-02
-1.4235885e-02
-1.1187788e-02
-8.7220780e-03
-6.6741649e-03
-4.8098869e-03
-3.0538428e-03
-1.4200000e-03
-9.5197351e-05
 4.4180765e-05
-2.4684800e-06
 1.0550037e-06
-7.0122567e-08
-1.9616252e-08
 4.3625209e-09
 0.0000000e+00
-1.1223972e-10
 1.4955566e-11
 1.2618467e-12
-5.3930065e-13
 3.5845512e-14
 1.0027508e-14
-2.2300495e-15
 0.0000000e+00
 5.7375111e-17
-7.6450410e-18
-6.4503542e-19
 2.7568169e-19
-1.8323640e-20
-5.1258984e-21
 1.1399649e-21
 0.0000000e+00
-2.9329220e-23
 3.9080201e-24
 3.2973158e-25
-1.4092398e-25
 9.3667459e-27
 2.6202756e-27
-5.8273144e-28
 0.0000000e+00
 1.4992619e-29
-1.9977161e-30
-1.6855340e-31
 7.2038038e-32
-4.7881276e-33
-1.3394421e-33
 2.9788280e-34
 0.0000000e+00
-7.6639820e-36
 1.0211999e-36
 8.6161747e-38
-3.6824669e-38
 2.4476127e-39
 6.8470094e-40
-1.5227282e-40
 0.0000000e+00
 3.9177025e-42
-5.2202070e-43
-4.4044479e-44
 1.8824170e-44
-1.2511797e-45
-3.5000825e-46
 7.7841661e-47
 3.0535351e-60
-2.0912547e-48
 6.6519331e-49
 1.4464853e-48
-2.1433454e-47
 5.0127763e-47
 5.9411315e-46
-4.4587464e-45
 0.0000000e+00
 1.7330206e-43
-7.7925973e-43
-2.7856337e-42
 4.1910242e-41
-9.8060885e-41
-1.1622299e-39
 8.7223957e-39
 0.0000000e+00
-3.3902111e-37
 1.5244222e-36
 5.4493792e-36
-8.1986659e-35
 1.9183102e-34
 2.2736054e-33
-1.7063134e-32
 0.0000000e+00
 6.6320801e-31
-2.9821417e-30
-1.0660315e-29
 1.6038591e-28
-3.7526828e-28
-4.4477268e-27
 3.3379654e-26
 0.0000000e+00
-1.2973967e-24
 5.8337969e-24
 2.0854178e-23
-3.1375397e-22
 7.3411632e-22
 8.7008389e-21
-6.5298748e-20
 0.0000000e+00
 2.5380245e-18
-1.1412330e-17
-4.0795860e-17
 6.1377933e-16
-1.4361106e-15
-1.7020964e-14
 1.2774028e-13
 0.0000000e+00
-4.9649952e-12
 2.2325302e-11
 7.9806657e-11
-1.2007021e-09
 2.8093828e-09
 3.3297159e-08
-2.4989116e-07
 0.0000000e+00
 9.7127420e-06
-4.3673739e-05
 7.7661308e-04
 2.2913663e-03
 3.8536930e-03
 5.6038833e-03
 7.3580905e-03
 9.1600000e-03
 1.1162694e-02
 1.3299443e-02
 1.5549338e-02
 1.7910748e-02
 2.0406714e-02
 2.3029494e-02
 2.5843752e-02
 2.8800000e-02
 3.1912183e-02
 3.5223767e-02
 3.8655357e-02
 4.2235198e-02
 4.6152096e-02
 5.0225109e-02
 5.4402031e-02
 5.8960000e-02
 6.3605098e-02
 6.8508435e-02
 7.3569389e-02
 7.8932211e-02
 8.4560995e-02
 9.0385527e-02
 9.6490186e-02
 1.0278000e-01
 1.0936866e-01
 1.1614109e-01
 1.2325611e-01
 1.3052484e-01
 1.3800774e-01
 1.4570951e-01
 1.5362223e-01
 1.6184000e-01
 1.7028648e-01
 1.7893942e-01
 1.8763621e-01
 1.9656218e-01
 2.0575424e-01
 2.1510010e-01
 2.2446753e-01
 2.3396000e-01
 2.4366998e-01
 2.5341522e-01
 2.6319718e-01
 2.7303922e-01
 2.8289809e-01
 2.9279987e-01
 3.0269213e-01
 3.1250000e-01
 3.2218012e-01
 3.3183607e-01
 3.4138528e-01
 3.5077486e-01
 3.5995159e-01
 3.6896095e-01
 3.7774637e-01
 3.8626000e-01
 3.9443655e-01
 4.0228649e-01
 4.0997224e-01
 4.1702708e-01
 4.2376550e-01
 4.3012244e-01
 4.3603336e-01
 4.4142000e-01
 4.4637283e-01
 4.5093509e-01
 4.5483098e-01
 4.5825158e-01
 4.6119807e-01
 4.6358983e-01
 4.6538484e-01
 4.6670000e-01
 4.6739308e-01
 4.6884512e-01
 4.7246433e-01
 4.7592342e-01
 4.7895774e-01
 4.8117802e-01
 4.8305131e-01
 4.8424000e-01
 4.8497951e-01
 4.8486108e-01
 4.8409223e-01
 4.8301772e-01
 4.8115295e-01
 4.7881791e-01
 4.7595030e-01
 4.7270000e-01
 4.6868842e-01
 4.6432305e-01
 4.5947461e-01
 4.5411817e-01
 4.4845390e-01
 4.4238244e-01
 4.3593373e-01
 4.2898000e-01
 4.2173653e-01
 4.1417225e-01
 4.0626898e-01
 3.9805082e-01
 3.8952654e-01
 3.8076968e-01
 3.7181081e-01
 3.6266000e-01
 3.5321407e-01
 3.4356651e-01
 3.3378546e-01
 3.2388760e-01
 3.1386247e-01
 3.0364021e-01
 2.9337855e-01
 2.8304000e-01
 2.7264851e-01
 2.6226079e-01
 2.5185210e-01
 2.4147747e-01
 2.3114079e-01
 2.2080854e-01
 2.1058745e-01
 2.0048000e-01
 1.9051890e-01
 1.8073525e-01
 1.7109690e-01
 1.6168546e-01
 1.5248546e-01
 1.4345444e-01
 1.3469563e-01
 1.2620000e-01
 1.1779249e-01
 1.0976299e-01
 1.0186275e-01
 9.4164406e-02
 8.6695556e-02
 7.9453797e-02
 7.2477173e-02
 6.5720000e-02
 5.9196770e-02
 5.2818920e-02
 4.6644480e-02
 4.0667447e-02
 3.5004162e-02
 2.9539416e-02
 2.4132034e-02
 1.9000000e-02
 1.4056081e-02
 9.3339908e-03
 4.7234518e-03
 9.9327966e-04
-1.5896065e-04
-1.2549770e-09
-6.9088527e-05
 0.0000000e+00
-5.7218436e-07
 7.6241644e-08
 6.4327401e-09
-2.7492888e-09
 1.8273604e-10
 5.1119009e-11
-1.1368519e-11
 0.0000000e+00
 2.9249130e-13
-3.8973484e-14
-3.2883117e-15
 1.4053915e-15
-9.3411678e-17
-2.6131203e-17
 5.8114016e-18
 0.0000000e+00
-1.4951678e-19
 1.9922609e-20
 1.6809313e-21
-7.1841321e-22
 4.7750525e-23
 1.3357844e-23
-2.9706936e-24
 0.0000000e+00
 7.6430537e-26
-1.0184112e-26
-8.5926463e-28
 3.6724111e-28
-2.4409289e-29
-6.8283120e-30
 1.5185701e-30
 1.1900751e-43
-3.9070043e-32
 5.2059520e-33
 4.3924205e-34
-1.8772766e-34
 1.2477630e-35
 3.4905216e-36
-7.7626824e-37
 0.0000000e+00
 1.9971968e-38
-2.6611977e-39
-2.2453337e-40
 9.5963315e-41
-6.3783608e-42
-1.7842977e-42
 3.9681565e-43
 0.0000000e+00
-1.0209344e-44
 1.3603608e-45
 1.1477779e-46
-4.9054880e-47
 3.2605139e-48
 9.1210385e-49
-2.0284568e-49
 0.0000000e+00
 5.2188501e-51
-6.9539425e-52
-5.8672534e-53
 2.5076054e-53
-1.6667215e-54
-4.6625260e-55
 1.0369140e-55
 0.0000000e+00
-2.6677910e-57
 3.5547419e-58
 2.9992441e-59
-1.2818470e-59
 8.5200082e-61
 2.3834072e-61
-5.3005352e-62
 0.0000000e+00
 1.3637312e-63
-1.8171260e-64
-1.5331646e-65
 6.5525924e-66
-4.3552891e-67
-1.2183588e-67
 2.7095471e-68
 0.0000000e+00
-6.9711712e-70
 9.2888516e-71
 7.8372874e-72
-3.3495783e-72
 2.2263527e-73
 6.2280516e-74
-1.3850762e-74
 0.0000000e+00
 3.5635489e-76
-4.7483093e-77
-4.0062934e-78
 1.7122497e-78
-1.1380752e-79
-3.1836783e-80
 7.0802837e-81
 0.0000000e+00
-1.8216280e-82
 2.4272578e-83
 2.0479366e-84
-8.7504500e-85
 5.7640477e-86
 9.9209044e-87
 4.4063222e-86
 0.0000000e+00
-1.8532268e-84
 8.3335160e-84
 2.9790012e-83
-4.4819484e-82
 1.0486788e-81
 1.2429073e-80
-9.3278698e-80
 0.0000000e+00
 3.6255461e-78
-1.6302415e-77
-5.8276534e-77
 8.7677847e-76
-2.0514716e-75
-2.4314300e-74
 1.8247589e-73
 0.0000000e+00
-7.0924527e-72
 3.1891502e-71
 1.1400312e-70
-1.7151926e-69
 4.0131791e-69
 4.7564704e-68
-3.5696737e-67
 0.0000000e+00
 1.3874568e-65
-6.2387558e-65
-2.2301792e-64
 3.3553353e-63
-7.8507575e-63
-9.3048166e-62
 6.9831528e-61
 0.0000000e+00
-2.7142041e-59
 1.2204529e-58
 4.3627747e-58
-6.5638545e-57
 1.5357997e-56
 1.8202492e-55
-1.3660751e-54
 0.0000000e+00
 5.3096454e-53
-2.3875036e-52
-8.5346518e-52
 1.2840501e-50
-3.0043990e-50
-3.5608515e-49
 2.6723762e-48
 8.1400689e-60
-1.0386962e-46
 4.6705396e-46
 1.6695861e-45
-2.5119153e-44
 5.8773375e-44
 6.9658944e-43
-5.2278198e-42
 0.0000000e+00
 2.0319432e-40
-9.1367151e-40
-3.2661179e-39
 4.9139192e-38
-1.1497506e-37
-1.3626989e-36
 1.0226891e-35
 0.0000000e+00
-3.9749767e-34
 1.7873644e-33
 6.3893235e-33
-9.6128250e-32
 2.2491928e-31
 2.6657716e-30
-2.0006294e-29
 0.0000000e+00
 7.7760243e-28
-3.4965209e-27
-1.2499076e-26
 1.8805031e-25
-4.3999699e-25
-5.2148996e-24
 3.9137194e-23
 0.0000000e+00
-1.5211801e-21
 6.8400480e-21
 2.4451242e-20
-3.6787229e-19
 8.6074147e-19
 1.0201616e-17
-7.6561900e-17
 0.0000000e+00
 2.9757994e-15
-1.3380803e-14
-4.7832595e-14
 7.1964797e-13
-1.6838203e-12
-1.9956850e-11
 1.4977376e-10
 0.0000000e+00
-5.8213898e-09
 2.6176115e-08
 9.3572227e-08
-1.4078070e-06
 3.2939634e-06
-1.0689703e-04
 6.4770911e-04
 4.0200000e-03
 9.1050900e-03
 1.4438756e-02
 2.0149502e-02
 2.6189035e-02
 3.2686571e-02
 3.9632403e-02
 4.6947893e-02
 5.4600000e-02
 6.2677792e-02
 7.1092844e-02
 7.9821427e-02
 8.8835343e-02
 9.8199076e-02
 1.0777857e-01
 1.1751507e-01
 1.2748000e-01
 1.3757846e-01
 1.4770995e-01
 1.5793153e-01
 1.6814027e-01
 1.7819656e-01
 1.8807153e-01
 1.9772678e-01
 2.0698000e-01
 2.1589055e-01
 2.2425258e-01
 2.3197881e-01
 2.3913870e-01
 2.4571272e-01
 2.5160481e-01
 2.5662541e-01
 2.6086000e-01
 2.6435214e-01
 2.6701206e-01
 2.6870597e-01
 2.6977159e-01
 2.6967379e-01
 2.6854688e-01
 2.6667745e-01
 2.6390000e-01
 2.6038040e-01
 2.5566291e-01
 2.5020679e-01
 2.4394946e-01
 2.3696505e-01
 2.2945263e-01
 2.2133761e-01
 2.1280000e-01
 2.0383841e-01
 1.9459736e-01
 1.8519828e-01
 1.7555049e-01
 1.6574929e-01
 1.5595968e-01
 1.4617095e-01
 1.3638000e-01
 1.2669692e-01
 1.1720989e-01
 1.0786069e-01
 9.8786434e-02
 8.9932730e-02
 8.1339391e-02
 7.3129834e-02
 6.5240000e-02
 5.7644788e-02
 5.0541178e-02
 4.3826199e-02
 3.7536374e-02
 3.1618620e-02
 2.6153189e-02
 2.1216057e-02
 1.6560000e-02
 1.2226017e-02
 8.2792574e-03
 4.7305705e-03
 1.5643941e-03
-6.4581232e-05
 2.8693414e-06
-2.5145645e-06
 0.0000000e+00
 6.4695166e-08
-8.6204136e-09
-7.2733059e-10
 3.1085382e-10
-2.0661414e-11
-5.7798727e-12
 1.2854043e-12
 0.0000000e+00
-3.3071113e-14
 4.4066147e-15
 3.7179952e-16
-1.5890340e-16
 1.0561778e-17
 2.9545766e-18
-6.5707771e-19
-5.1493958e-32
 1.6905413e-20
-2.2525895e-21
-1.9005785e-22
 8.1228823e-23
-5.3990084e-24
-1.5103313e-24
 3.3588740e-25
 0.0000000e+00
-8.6417711e-27
 1.1514871e-27
 9.7154807e-29
-4.1527941e-29
 2.7718005e-30
 9.1328089e-31
-1.2315706e-30
 0.0000000e+00
 4.1199342e-29
-1.8523524e-28
-6.6216167e-28
 9.9623126e-27
-2.3309653e-26
-2.7626894e-25
 2.0733651e-24
 0.0000000e+00
-8.0587325e-23
 3.6236418e-22
 1.2953497e-21
-1.9488714e-20
 4.5599369e-20
 5.4044946e-19
-4.0560081e-18
 0.0000000e+00
 1.5764847e-16
-7.0887275e-16
-2.5340201e-15
 3.8124680e-14
-8.9203492e-14
-1.0572510e-12
 7.9345414e-12
 0.0000000e+00
-3.0839887e-10
 1.3867281e-09
 4.9571615e-09
-7.4581177e-08
 1.7450380e-07
 2.0682409e-06
-1.5521899e-05
 6.0000000e-05
-8.7157937e-04
-2.6652844e-04
-2.1011289e-05
 8.9800148e-06
-5.9687157e-07
-1.6697026e-07
 3.7133048e-08
 0.0000000e+00
-9.5536571e-10
 1.2729927e-10
 1.0740628e-11
-4.5904370e-12
 3.0511100e-13
 8.5352471e-14
-1.8981808e-14
 0.0000000e+00
 4.8836736e-16
-6.5073311e-17
-5.4904337e-18
 2.3465565e-18
-1.5596776e-19
-4.3630790e-20
 9.7031905e-21
 0.0000000e+00
-2.4964542e-22
 3.3264414e-23
 2.8066201e-24
-1.1995214e-24
 7.9728175e-26
 2.2303348e-26
-4.9601126e-27
 0.0000000e+00
 1.2761466e-28
-1.7004226e-29
-1.4346984e-30
 6.1317574e-31
-4.0755742e-32
-1.1401107e-32
 2.5355286e-33
 0.0000000e+00
-6.5234533e-35
 8.6922825e-36
 7.3339439e-37
-3.1344543e-37
 2.0833668e-38
 5.8280374e-39
-1.2959519e-39
 0.0000000e+00
 2.6779565e-41
 2.5086614e-41
 1.0518640e-40
-1.5880240e-39
 3.7159964e-39
 4.4042580e-38
-3.3053428e-37
-2.0136176e-48
 1.2847170e-35
-5.7767820e-35
-2.0650366e-34
 3.1068759e-33
-7.2694165e-33
-8.6158039e-32
 6.4660570e-31
 0.0000000e+00
-2.5132199e-29
 1.1300795e-28
 4.0397154e-28
-6.0778074e-27
 1.4220752e-26
 1.6854615e-25
-1.2649185e-24
 0.0000000e+00
 4.9164713e-23
-2.2107113e-22
-7.9026690e-22
 1.1889674e-20
-2.7819262e-20
-3.2971739e-19
 2.4744893e-18
 0.0000000e+00
-9.6178174e-17
 4.3246906e-16
 1.5459549e-15
-2.3259104e-14
 5.4421264e-14
 6.4500766e-13
-4.8407048e-12
 0.0000000e+00
 1.8814798e-10
-8.4601501e-10
-3.0242650e-09
 4.5500482e-08
-1.0646127e-07
-1.2617924e-06
 1.9235225e-05
 8.0000000e-05
-9.4695997e-06
 1.2617924e-06
 1.0646127e-07
-4.5500482e-08
 3.0242650e-09
 8.4601501e-10
-1.8814798e-10
 0.0000000e+00
 4.8407048e-12
-6.4500766e-13
-5.4421264e-14
 2.3259104e-14
-1.5459549e-15
-4.3246906e-16
 9.6178174e-17
 0.0000000e+00
-2.4744893e-18
 3.2971739e-19
 2.7819262e-20
-1.1889674e-20
 7.9026690e-22
 2.2107113e-22
-4.9164713e-23
 0.0000000e+00
 1.2649185e-24
-1.6854615e-25
-1.4220752e-26
 6.0778074e-27
-4.0397154e-28
-1.1300795e-28
 2.5132199e-29
 0.0000000e+00
-6.4660570e-31
 8.6158039e-32
 7.2694165e-33
-3.1068759e-33
 2.0650366e-34
 5.7767820e-35
-1.2847170e-35
 0.0000000e+00
 3.3053428e-37
-4.4042583e-38
-3.7160071e-39
 1.5881843e-39
-1.0556130e-40
-2.9529967e-41
 6.5672634e-42
 0.0000000e+00
-1.6896373e-43
 2.2513850e-44
 1.8995622e-45
-8.1185393e-46
 5.3961370e-47
 1.5097105e-47
-3.3710996e-48
 0.0000000e+00
 6.3136600e-49
-2.4620986e-48
-8.7611385e-48
 1.3179834e-46
-3.0837862e-46
-3.6549418e-45
 2.7429898e-44
 0.0000000e+00
-1.0661422e-42
 4.7939518e-42
 1.7137025e-41
-2.5782890e-40
 6.0326376e-40
 7.1499580e-39
-5.3659574e-38
 0.0000000e+00
 2.0856343e-36
-9.3781395e-36
-3.3524203e-35
 5.0437624e-34
-1.1801311e-33
-1.3987062e-32
 1.0497122e-31
 0.0000000e+00
-4.0800097e-30
 1.8345929e-29
 6.5581520e-29
-9.8668299e-28
 2.3086244e-27
 2.7362107e-26
-2.0534932e-25
 0.0000000e+00
 7.9814944e-24
-3.5889114e-23
-1.2829346e-22
 1.9301927e-21
-4.5162327e-21
-5.3526958e-20
 4.0171337e-19
 0.0000000e+00
-1.5613751e-17
 7.0207863e-17
 2.5097330e-16
-3.7759278e-15
 8.8348531e-15
 1.0471179e-13
-7.8584937e-13
 0.0000000e+00
 3.0544306e-11
-1.3734371e-10
-4.9096502e-10
 7.3866362e-09
-1.7283128e-08
-2.0484181e-07
 1.5373131e-06
 9.3653243e-18
 4.7735726e-04
 1.9986778e-03
 3.5841192e-03
 5.2749373e-03
 7.0416566e-03
 8.8180622e-03
 1.0797796e-02
 1.2900000e-02
 1.5121237e-02
 1.7479749e-02
 1.9949764e-02
 2.2524576e-02
 2.5314734e-02
 2.8263592e-02
 3.1332221e-02
 3.4600000e-02
 3.8023774e-02
 4.1589392e-02
 4.5403066e-02
 4.9476271e-02
 5.3646298e-02
 5.8115971e-02
 6.2721980e-02
 6.7600000e-02
 7.2655356e-02
 7.7927219e-02
 8.3514917e-02
 8.9310026e-02
 9.5380723e-02
 1.0160237e-01
 1.0813376e-01
 1.1492000e-01
 1.2194721e-01
 1.2916849e-01
 1.3662980e-01
 1.4431049e-01
 1.5215366e-01
 1.6030664e-01
 1.6874384e-01
 1.7736000e-01
 1.8603704e-01
 1.9490199e-01
 2.0408090e-01
 2.1339933e-01
 2.2274750e-01
 2.3221965e-01
 2.4189744e-01
 2.5166000e-01
 2.6138896e-01
 2.7125884e-01
 2.8109873e-01
 2.9099957e-01
 3.0090230e-01
 3.1071526e-01
 3.2042022e-01
 3.3010000e-01
 3.3965550e-01
 3.4907096e-01
 3.5829461e-01
 3.6735942e-01
 3.7615109e-01
 3.8471864e-01
 3.9300952e-01
 4.0088000e-01
 4.0855787e-01
 4.1577347e-01
 4.2260413e-01
 4.2898723e-01
 4.3495558e-01
 4.4050738e-01
 4.4552642e-01
 4.5010000e-01
 4.5414953e-01
 4.5770717e-01
 4.6070792e-01
 4.6315056e-01
 4.6511019e-01
 4.6653614e-01
 4.6732357e-01
 4.6852000e-01
 4.7173825e-01
 4.7537832e-01
 4.7837854e-01
 4.8079676e-01
 4.8284636e-01
 4.8405400e-01
 4.8481867e-01
 4.8504000e-01
 4.8421789e-01
 4.8324440e-01
 4.8150247e-01
 4.7932405e-01
 4.7652279e-01
 4.7327261e-01
 4.6944645e-01
 4.6520000e-01
 4.6038598e-01
 4.5509368e-01
 4.4952309e-01
 4.4355278e-01
 4.3710307e-01
 4.3026419e-01
 4.2310209e-01
 4.1558000e-01
 4.0770557e-01
 3.9957077e-01
 3.9111798e-01
 3.8237194e-01
 3.7343930e-01
 3.6435747e-01
 3.5496753e-01
 3.4532000e-01
 3.3556920e-01
 3.2570592e-01
 3.1570084e-01
 3.0550122e-01
 2.9525603e-01
 2.8492150e-01
 2.7454582e-01
 2.6414000e-01
 2.5375026e-01
 2.4335586e-01
 2.3301948e-01
 2.2268528e-01
 2.1242548e-01
 2.0230861e-01
 1.9232617e-01
 1.8252000e-01
 1.7279669e-01
 1.6339960e-01
 1.5414881e-01
 1.4506012e-01
 1.3625999e-01
 1.2773726e-01
 1.1929655e-01
 1.1120000e-01
 1.0329140e-01
 9.5553805e-02
 8.8055069e-02
 8.0710997e-02
 7.3749290e-02
 6.6938532e-02
 6.0359471e-02
 5.3960000e-02
 4.7766647e-02
 4.1730550e-02
 3.5993048e-02
 3.0526426e-02
 2.5129145e-02
 1.9885191e-02
 1.4938732e-02
 1.0180000e-02
 5.6070151e-03
 1.1624320e-03
-4.7094848e-05
-5.7038945e-05
-8.0030191e-05
 9.1487455e-06
-2.0346187e-06
 0.0000000e+00
 5.2347034e-08
-6.9750665e-09
-5.8850763e-10
 2.5152228e-10
-1.6717845e-11
-4.6766894e-12
 1.0400639e-12
 0.0000000e+00
-2.6758949e-14
 3.5655401e-15
 3.0083550e-16
-1.2857408e-16
 8.5458895e-18
 2.3906473e-18
-5.3166367e-19
 0.0000000e+00
 1.3678738e-20
-1.8226459e-21
-1.5378219e-22
 6.5724972e-23
-4.3685192e-24
-1.2220599e-24
 2.7177779e-25
 0.0000000e+00
-6.9923476e-27
 9.3170684e-28
 7.8610948e-29
-3.3597533e-29
 2.2331157e-30
 6.2469705e-31
-1.3892837e-31
 0.0000000e+00
 3.5743740e-33
-4.7627333e-34
-4.0184633e-35
 1.7174510e-35
-1.1415323e-36
-3.1933494e-37
 7.1017915e-38
 0.0000000e+00
-1.8271616e-39
 2.4346315e-40
 2.0541729e-41
-8.7793293e-42
 5.8353268e-43
 1.6323881e-43
-3.6303199e-44
 0.0000000e+00
 9.3401519e-46
-1.2445439e-46
-1.0500596e-47
 4.4878499e-48
-2.9829238e-49
-8.3445013e-50
 1.8557603e-50
 0.0000000e+00
-4.7745332e-52
 6.3619052e-53
 5.3677334e-54
-2.2941156e-54
 1.5248220e-55
 4.2655729e-56
-9.4863435e-57
 0.0000000e+00
 2.4406634e-58
-3.2521021e-59
-2.7438977e-60
 1.1727144e-60
-7.7946409e-62
-2.1804912e-62
 4.8492640e-63
 0.0000000e+00
-1.2476273e-64
 1.6624215e-65
 1.4026357e-66
-5.9947248e-67
 3.9844932e-68
 1.1146315e-68
-2.4788646e-69
-3.8852801e-82
 6.3776671e-71
-8.4980273e-72
-7.1700448e-73
 3.0644055e-73
-2.0368079e-74
-5.6978144e-75
 1.2671551e-75
 0.0000000e+00
-3.2601593e-77
 4.3440529e-78
 3.6652099e-79
-1.5664740e-79
 1.0411829e-80
 2.9126297e-81
-6.4774901e-82
 0.0000000e+00
 1.6665350e-83
-2.2203716e-84
-1.8651121e-85
 6.7312269e-86
 2.4541064e-86
 3.5245613e-85
-2.6559836e-84
 0.0000000e+00
 1.0324534e-82
-4.6424689e-82
-1.6595516e-81
 2.4968183e-80
-5.8420138e-80
-6.9240282e-79
 5.1963998e-78
 0.0000000e+00
-2.0197309e-76
 9.0818019e-76
 3.2464879e-75
-4.8843857e-74
 1.1428404e-73
 1.3545089e-72
-1.0165426e-71
 0.0000000e+00
 3.9510864e-70
-1.7766220e-69
-6.3509226e-69
 9.5550503e-68
-2.2356748e-67
-2.6497498e-66
 1.9886053e-65
 0.0000000e+00
-7.7292891e-64
 3.4755062e-63
 1.2423954e-62
-1.8692010e-61
 4.3735253e-61
 5.1835572e-60
-3.8901972e-59
 0.0000000e+00
 1.5120375e-57
-6.7989382e-57
-2.4304286e-56
 3.6566132e-55
-8.5556827e-55
-1.0140303e-53
 7.6101750e-53
 0.0000000e+00
-2.9579144e-51
 1.3300382e-50
 4.7545113e-50
-7.1532276e-49
 1.6737003e-48
 1.9836906e-47
-1.4887359e-46
 0.0000000e+00
 5.7864022e-45
-2.6018793e-44
-9.3009842e-44
 1.3993459e-42
-3.2741661e-42
-3.8805829e-41
 2.9123307e-40
 0.0000000e+00
-1.1319615e-38
 5.0899107e-38
 1.8194995e-37
-2.7374620e-36
 6.4050679e-36
 7.5913670e-35
-5.6972295e-34
-3.4707570e-45
 2.2143928e-32
-9.9571072e-32
-3.5593849e-31
 5.3551435e-30
-1.2529876e-29
-1.4850566e-28
 1.1145171e-27
 0.0000000e+00
-4.3318927e-26
 1.9478531e-25
 6.9630254e-25
-1.0475967e-23
 2.4511494e-23
 2.9051331e-22
-2.1802674e-21
 0.0000000e+00
 8.4742391e-20
-3.8104760e-19
-1.3621377e-18
 2.0493548e-17
-4.7950463e-17
-5.6831492e-16
 4.2651350e-15
 0.0000000e+00
-1.6577679e-13
 7.4542208e-13
 2.6646736e-12
-4.0090381e-11
 9.3802806e-11
 1.1117626e-09
-8.3436448e-09
 0.0000000e+00
 3.2429986e-07
-1.4582275e-06
-5.2908768e-06
-2.4073433e-05
-2.3110551e-05
 3.2969960e-03
 8.1630644e-03
 1.3420000e-02
 1.9069022e-02
 2.5078742e-02
 3.1498310e-02
 3.8308418e-02
 4.5579246e-02
 5.3212649e-02
 6.1188164e-02
 6.9500000e-02
 7.8221586e-02
 8.7193368e-02
 9.6472721e-02
 1.0600607e-01
 1.1574818e-01
 1.2565657e-01
 1.3573868e-01
 1.4586000e-01
 1.5607067e-01
 1.6628737e-01
 1.7640787e-01
 1.8627972e-01
 1.9597476e-01
 2.0533758e-01
 2.1433831e-01
 2.2274000e-01
 2.3059365e-01
 2.3793512e-01
 2.4457392e-01
 2.5052675e-01
 2.5577785e-01
 2.6022760e-01
 2.6373658e-01
 2.6654000e-01
 2.6849180e-01
 2.6970035e-01
 2.6971135e-01
 2.6877639e-01
 2.6719873e-01
 2.6445066e-01
 2.6101905e-01
 2.5658000e-01
 2.5134719e-01
 2.4509817e-01
 2.3825278e-01
 2.3090961e-01
 2.2286550e-01
 2.1434820e-01
 2.0549522e-01
 1.9630000e-01
 1.8692052e-01
 1.7730997e-01
 1.6752926e-01
 1.5774023e-01
 1.4795017e-01
 1.3816262e-01
 1.2842384e-01
 1.1892000e-01
 1.0956584e-01
 1.0041931e-01
 9.1500522e-02
 8.2887305e-02
 7.4615260e-02
 6.6646109e-02
 5.8964158e-02
 5.1820000e-02
 4.5036991e-02
 3.8616804e-02
 3.2656765e-02
 2.7150812e-02
 2.2081632e-02
 1.7361904e-02
 1.2995276e-02
 9.0000000e-03
 5.3386401e-03
 1.9826690e-03
 2.2048866e-04
-4.7442763e-05
 2.6548620e-06
 7.4267734e-07
-1.6516638e-07
 0.0000000e+00
 4.2494302e-09
-5.6622231e-10
-4.7773903e-11
 2.0418089e-11
-1.3571221e-12
-3.7964453e-13
 8.4430359e-14
 0.0000000e+00
-2.1722394e-15
 2.8944360e-16
 2.4421240e-17
-1.0437394e-17
 6.9373866e-19
 1.9406809e-19
-4.3159421e-20
 0.0000000e+00
 1.1104133e-21
-1.4795885e-22
-1.2483739e-23
 5.3354252e-24
-3.5462788e-25
-9.9204439e-26
 2.2062392e-26
 0.0000000e+00
-5.6762563e-28
 7.5636280e-29
 6.3891115e-30
-2.8421455e-30
 4.4980102e-31
 3.2332567e-30
-2.3895895e-29
-1.4550706e-40
 9.2834494e-28
-4.1743394e-27
-1.4922086e-26
 2.2450483e-25
-5.2529266e-25
-6.2258347e-24
 4.6724139e-23
 0.0000000e+00
-1.8160686e-21
 8.1660264e-21
 2.9191240e-20
-4.3918622e-19
 1.0276006e-18
 1.2179252e-17
-9.1403817e-17
 0.0000000e+00
 3.5526734e-15
-1.5974740e-14
-5.7105189e-14
 8.5915542e-13
-2.0102375e-12
-2.3825588e-11
 1.7880817e-10
 0.0000000e+00
-6.9498960e-09
 3.1250489e-08
 1.1171168e-07
-1.6807176e-06
 3.9325151e-06
 8.4733664e-05
-5.2869866e-04
-2.7800000e-03
-5.1028623e-03
-7.2454576e-03
-8.9458563e-03
-1.0601227e-02
-1.2237793e-02
-1.3805500e-02
-1.5605817e-02
-1.7640000e-02
-2.0018845e-02
-2.2893256e-02
-2.6624279e-02
-3.0941456e-02
-3.6159717e-02
-4.2842266e-02
-5.1180368e-02
-6.1040000e-02
-7.2565219e-02
-8.5885743e-02
-1.0019347e-01
-1.1527447e-01
-1.3070913e-01
-1.4573729e-01
-1.5971424e-01
-1.7200000e-01
-1.8050474e-01
-1.8484866e-01
-1.8382067e-01
-1.7593512e-01
-1.5930424e-01
-1.3441653e-01
-1.0100675e-01
-5.6020000e-02
-5.3361380e-04
 6.5323425e-02
 1.4182439e-01
 2.3117018e-01
 3.2908463e-01
 4.3383287e-01
 5.4331649e-01
 6.5400000e-01
 7.6294033e-01
 8.6776699e-01
 9.6175237e-01
 1.0424961e+00
 1.1064030e+00
 1.1493262e+00
 1.1639542e+00
 1.1562400e+00
 1.1264751e+00
 1.0727910e+00
 9.9820949e-01
 9.0772812e-01
 8.0370387e-01
 6.8796749e-01
 5.6776338e-01
 4.4720000e-01
 3.2976799e-01
 2.1908163e-01
 1.1625925e-01
 2.2279207e-02
-5.9340699e-02
-1.2858525e-01
-1.8611676e-01
-2.3190000e-01
-2.6338268e-01
-2.8448642e-01
-2.9569729e-01
-2.9719502e-01
-2.8992105e-01
-2.7699884e-01
-2.5948878e-01
-2.3784000e-01
-2.1386259e-01
-1.8889590e-01
-1.6363119e-01
-1.3939373e-01
-1.1680359e-01
-9.6577546e-02
-7.9142706e-02
-6.4220000e-02
-5.1544742e-02
-4.0823735e-02
-3.2321011e-02
-2.5361062e-02
-1.9841941e-02
-1.5508039e-02
-1.2228673e-02
-9.5600000e-03
-7.3848080e-03
-5.4741879e-03
-3.6807695e-03
-2.0168805e-03
-4.0306490e-04
 3.4809394e-05
 1.3896905e-05
 0.0000000e+00
-3.0327168e-07
 4.0409932e-08
 3.4095093e-09
-1.4571902e-09
 9.6854559e-11
 2.7094323e-11
-6.0255928e-12
 0.0000000e+00
 1.5502753e-13
-2.0656898e-14
-1.7428855e-15
 7.4489182e-16
-4.9510470e-17
-1.3850175e-17
 3.0801847e-18
 0.0000000e+00
-7.9247543e-20
 1.0559469e-20
 8.9093460e-22
-3.8077654e-22
 2.5308944e-23
 7.0799836e-24
-1.5745401e-24
-2.4678756e-37
 4.0510050e-26
-5.3978282e-27
-4.5543123e-28
 1.9464675e-28
-1.2937519e-29
-3.6191720e-30
 8.0487921e-31
 0.0000000e+00
-2.0708076e-32
 2.7592817e-33
 2.3280901e-34
-9.9500242e-35
 6.6134485e-36
 1.8500617e-36
-4.1144111e-37
 0.0000000e+00
 1.0585631e-38
-1.4104997e-39
-1.1900816e-40
 5.0862899e-41
-3.3806869e-42
-9.4572133e-43
 2.1032198e-43
 0.0000000e+00
-5.4112016e-45
 7.2102459e-46
 6.0835558e-47
-2.6008213e-47
 1.7467038e-48
 7.0331630e-49
-1.7576786e-48
 0.0000000e+00
 6.4141212e-47
-2.8840149e-46
-1.0309527e-45
 1.5510824e-44
-3.6291968e-44
-4.3013697e-43
 3.2281262e-42
 0.0000000e+00
-1.2547045e-40
 5.6418297e-40
 2.0167949e-39
-3.0342957e-38
 7.0995945e-38
 8.4145287e-37
-6.3150025e-36
 0.0000000e+00
 2.4545081e-34
-1.1036795e-33
-3.9453430e-33
 5.9358228e-32
-1.3888539e-31
-1.6460871e-30
 1.2353686e-29
 0.0000000e+00
-4.8016168e-28
 2.1590665e-27
 7.7180535e-27
-1.1611918e-25
 2.7169371e-25
 3.2201481e-24
-2.4166823e-23
 0.0000000e+00
 9.3931341e-22
-4.2236609e-21
-1.5098396e-20
 2.2715744e-19
-5.3149920e-19
-6.2993954e-18
 4.7276203e-17
 0.0000000e+00
-1.8375262e-15
 8.2625112e-15
 2.9536146e-14
-4.4437538e-13
 1.0397421e-12
 1.2323154e-11
-9.2483789e-11
 0.0000000e+00
 3.5946496e-09
-1.6163488e-08
-5.7779909e-08
 8.6930668e-07
-2.0339893e-06
-2.4107097e-05
 3.4205367e-04
 1.7000000e-03
 3.2968945e-03
 4.9522264e-03
 6.7191008e-03
 8.4890272e-03
 1.0414490e-02
 1.2509458e-02
 1.4717820e-02
 1.7040000e-02
 1.9481766e-02
 2.2057366e-02
 2.4797811e-02
 2.7712696e-02
 3.0753553e-02
 3.4003746e-02
 3.7397118e-02
 4.0900000e-02
 4.4692171e-02
 4.8737101e-02
 5.2859654e-02
 5.7265130e-02
 6.1896908e-02
 6.6695848e-02
 7.1707932e-02
 7.6940000e-02
 8.2496125e-02
 8.8228857e-02
 9.4256410e-02
 1.0046159e-01
 1.0693546e-01
 1.1366786e-01
 1.2063191e-01
 1.2786000e-01
 1.3526014e-01
 1.4289292e-01
 1.5070203e-01
 1.5882497e-01
 1.6718833e-01
 1.7577677e-01
 1.8446377e-01
 1.9328000e-01
 2.0238749e-01
 2.1169811e-01
 2.2105173e-01
 2.3048718e-01
 2.4011309e-01
 2.4988907e-01
 2.5961797e-01
 2.6948000e-01
 2.7929164e-01
 2.8920092e-01
 2.9909934e-01
 3.0895077e-01
 3.1866095e-01
 3.2833573e-01
 3.3792225e-01
 3.4740000e-01
 3.5662396e-01
 3.6571139e-01
 3.7457710e-01
 3.8320197e-01
 3.9150228e-01
 3.9946126e-01
 4.0723284e-01
 4.1450000e-01
 4.2135800e-01
 4.2786149e-01
 4.3393425e-01
 4.3952382e-01
 4.4461600e-01
 4.4932988e-01
 4.5348821e-01
 4.5706000e-01
 4.6018477e-01
 4.6278984e-01
 4.6479809e-01
 4.6625635e-01
 4.6732101e-01
 4.6789518e-01
 4.7108555e-01
 4.7476000e-01
 4.7788752e-01
 4.8042757e-01
 4.8244716e-01
 4.8387934e-01
 4.8473622e-01
 4.8507823e-01
 4.8436632e-01
 4.8352000e-01
 4.8188839e-01
 4.7972436e-01
 4.7705356e-01
 4.7394523e-01
 4.7019545e-01
 4.6596358e-01
 4.6130324e-01
 4.5610000e-01
 4.5055635e-01
 4.4464234e-01
 4.3831248e-01
 4.3156943e-01
 4.2440194e-01
 4.1696199e-01
 4.0917926e-01
 4.0108000e-01
 3.9265439e-01
 3.8398196e-01
 3.7508441e-01
 3.6601830e-01
 3.5668399e-01
 3.4708529e-01
 3.3735856e-01
 3.2750000e-01
 3.1752856e-01
 3.0736320e-01
 2.9712625e-01
 2.8679992e-01
 2.7644715e-01
 2.6601539e-01
 2.5564712e-01
 2.4524000e-01
 2.3490147e-01
 2.2455624e-01
 2.1429171e-01
 2.0414495e-01
 1.9410083e-01
 1.8429948e-01
 1.7456524e-01
 1.6510000e-01
 1.5579513e-01
 1.4671600e-01
 1.3784619e-01
 1.2927763e-01
 1.2079991e-01
 1.1266325e-01
 1.0473016e-01
 9.6900000e-02
 8.9417959e-02
 8.2039261e-02
 7.5006179e-02
 6.8139740e-02
 6.1550150e-02
 5.5120464e-02
 4.8870040e-02
 4.2800000e-02
 3.7036811e-02
 3.1506053e-02
 2.6106222e-02
 2.0814644e-02
 1.5849167e-02
 1.1007896e-02
 6.3988073e-03
 2.0800000e-03
-1.6588794e-05
-3.2745105e-05
-8.5509364e-05
-1.2428577e-05
 4.9375270e-07
 1.3812354e-07
-3.0717735e-08
 0.0000000e+00
 7.9031139e-10
-1.0530634e-10
-8.8850170e-12
 3.7973674e-12
-2.5239832e-13
-7.0606501e-14
 1.5702405e-14
 0.0000000e+00
-4.0399428e-16
 5.3830882e-17
 4.5418757e-18
-1.9411522e-18
 1.2902190e-19
 3.6092891e-20
-8.0268131e-21
 0.0000000e+00
 2.0651528e-22
-2.7517468e-23
-2.3217327e-24
 9.9228534e-25
-6.5953890e-26
-1.8450097e-26
 4.1031758e-27
 0.0000000e+00
-1.0556724e-28
 1.4066480e-29
 1.1868319e-30
-5.0724007e-31
 3.3714552e-32
 9.4313882e-33
-2.0974765e-33
 0.0000000e+00
 5.3964251e-35
-7.1905552e-36
-6.0668907e-37
 2.5929284e-37
-1.7234329e-38
-4.8211717e-39
 1.0721957e-39
 0.0000000e+00
-2.7585644e-41
 3.6756944e-42
 3.1012955e-43
-1.3254627e-43
 8.8099074e-45
 2.4645043e-45
-5.4808896e-46
-1.7181085e-58
 1.4101331e-47
-1.8789550e-48
-1.5853316e-49
 6.7755489e-50
-4.5034809e-51
-1.2598144e-51
 2.8017413e-52
 0.0000000e+00
-7.2083702e-54
 9.6049113e-55
 8.1039566e-56
-3.4635500e-56
 2.3021059e-57
 6.4399653e-58
-1.4322044e-58
 0.0000000e+00
 3.6848012e-60
-4.9098738e-61
-4.1426103e-62
 1.7705102e-62
-1.1767990e-63
-3.2920052e-64
 7.3211952e-65
 0.0000000e+00
-1.8836102e-66
 2.5098474e-67
 2.1176348e-68
-9.0505592e-69
 6.0156042e-70
 1.6828193e-70
-3.7424755e-71
 0.0000000e+00
 9.6287079e-73
-1.2829930e-73
-1.0825003e-74
 4.6264981e-75
-3.0750787e-76
-8.6022976e-77
 1.9130924e-77
 0.0000000e+00
-4.9220383e-79
 6.5584508e-80
 5.5335650e-81
-2.3649903e-81
 1.5719300e-82
 4.3973539e-83
-9.7793983e-84
 0.0000000e+00
 2.5092066e-85
-3.0441522e-86
 8.1965047e-87
-1.6466630e-85
 3.8803177e-85
 4.5999312e-84
-3.4522094e-83
 0.0000000e+00
 1.3418011e-81
-6.0334631e-81
-2.1567928e-80
 3.2449244e-79
-7.5924202e-79
-8.9986319e-78
 6.7533648e-77
 0.0000000e+00
-2.6248903e-75
 1.1802926e-74
 4.2192130e-74
-6.3478640e-73
 1.4852626e-72
 1.7603520e-71
-1.3211229e-70
 0.0000000e+00
 5.1349260e-69
-2.3089403e-68
-8.2538101e-68
 1.2417971e-66
-2.9055361e-66
-3.4436780e-65
 2.5844388e-64
 0.0000000e+00
-1.0045168e-62
 4.5168506e-62
 1.6146467e-61
-2.4292581e-60
 5.6839376e-60
 6.7366744e-59
-5.0557930e-58
 0.0000000e+00
 1.9650800e-56
-8.8360619e-56
-3.1586428e-55
 4.7522216e-54
-1.1119169e-53
-1.3178579e-52
 9.8903646e-52
 0.0000000e+00
-3.8441759e-50
 1.7285493e-49
 6.1790761e-49
-9.2965049e-48
 2.1751807e-47
 2.5780516e-46
-1.9347966e-45
 0.0000000e+00
 7.5201461e-44
-3.3814642e-43
-1.2087781e-42
 1.8186232e-41
-4.2551843e-41
-5.0432979e-40
 3.7849343e-39
 0.0000000e+00
-1.4711241e-37
 6.6149691e-37
 2.3646648e-36
-3.5576707e-35
 8.3241787e-35
 9.8659213e-34
-7.4042551e-33
 0.0000000e+00
 2.8778776e-31
-1.2940494e-30
-4.6258614e-30
 6.9596720e-29
-1.6284125e-28
-1.9300149e-27
 1.4484530e-26
 0.0000000e+00
-5.6298309e-25
 2.5314763e-24
 9.0493135e-24
-1.3614817e-22
 3.1855721e-22
 3.7755801e-21
-2.8335274e-20
 0.0000000e+00
 1.1013323e-18
-4.9521853e-18
-1.7702665e-17
 2.6633903e-16
-6.2317563e-16
-7.3859560e-15
 5.5430710e-14
 0.0000000e+00
-2.1544747e-12
 9.6876828e-12
 3.4630733e-11
-5.2102413e-10
 1.2190836e-09
 1.4448732e-08
-1.0843599e-07
 0.0000000e+00
 4.2146781e-06
-5.2701471e-05
 1.0076946e-04
 2.4942503e-03
 7.2258782e-03
 1.2434130e-02
 1.8045074e-02
 2.3940000e-02
 3.0271714e-02
 3.7059638e-02
 4.4248066e-02
 5.1772707e-02
 5.9698975e-02
 6.7992741e-02
 7.6622008e-02
 8.5500000e-02
 9.4773709e-02
 1.0426840e-01
 1.1396513e-01
 1.2382383e-01
 1.3390117e-01
 1.4402135e-01
 1.5420554e-01
 1.6444000e-01
 1.7456348e-01
 1.8448872e-01
 1.9427422e-01
 2.0365022e-01
 2.1269596e-01
 2.2129430e-01
 2.2923533e-01
 2.3660000e-01
 2.4339304e-01
 2.4956227e-01
 2.5488950e-01
 2.5941327e-01
 2.6315299e-01
 2.6617461e-01
 2.6817397e-01
 2.6946000e-01
 2.6988417e-01
 2.6903265e-01
 2.6746360e-01
 2.6498617e-01
 2.6184022e-01
 2.5743671e-01
 2.5229660e-01
 2.4630000e-01
 2.3958886e-01
 2.3224549e-01
 2.2435618e-01
 2.1594516e-01
 2.0714191e-01
 1.9797762e-01
 1.8863551e-01
 1.7910000e-01
 1.6930697e-01
 1.5952046e-01
 1.4973024e-01
 1.3993682e-01
 1.3019760e-01
 1.2063805e-01
 1.1123608e-01
 1.0206000e-01
 9.3124797e-02
 8.4430854e-02
 7.6058343e-02
 6.8085184e-02
 6.0364886e-02
 5.3056229e-02
 4.6227310e-02
 3.9780000e-02
 3.3725749e-02
 2.8070253e-02
 2.2974907e-02
 1.8223037e-02
 1.3746886e-02
 9.6829562e-03
 5.9779133e-03
 2.6400000e-03
 2.5605631e-04
-6.1417354e-05
-1.9652470e-06
 8.3992690e-07
-5.5827134e-08
-1.5617214e-08
 3.4731620e-09
 0.0000000e+00
-8.9358134e-11
 1.1906671e-11
 1.0046022e-12
-4.2935692e-13
 2.8537919e-14
 7.9832649e-15
-1.7754237e-15
 0.0000000e+00
 4.5678419e-17
-6.0864960e-18
-5.1353623e-19
 2.1948025e-19
-1.4588119e-20
-4.0809147e-21
 9.0756763e-22
 0.0000000e+00
-2.3350062e-23
 3.1113174e-24
 2.6251134e-25
-1.1219472e-25
 7.4572081e-27
 2.0860970e-27
-4.6393414e-28
 0.0000000e+00
 1.1951129e-29
-1.6577165e-30
-3.7463361e-31
 3.6748366e-30
-8.4679419e-30
-1.0031900e-28
 7.5287424e-28
 0.0000000e+00
-2.9262623e-26
 1.3158057e-25
 4.7036342e-25
-7.0766823e-24
 1.6557903e-23
 1.9624635e-22
-1.4728052e-21
 0.0000000e+00
 5.7244831e-20
-2.5740370e-19
-9.2014562e-19
 1.3843717e-17
-3.2391299e-17
-3.8390575e-16
 2.8811664e-15
 0.0000000e+00
-1.1198486e-13
 5.0354445e-13
 1.8000293e-12
-2.7081689e-11
 6.3365285e-11
 7.5101332e-10
-5.6362645e-09
 0.0000000e+00
 2.1906970e-07
-9.8505581e-07
-3.5212966e-06
 6.0478392e-05
-3.8497358e-04
-2.3060403e-03
-4.7225288e-03
-6.8400000e-03
-8.6596522e-03
-1.0297350e-02
-1.1944753e-02
-1.3525644e-02
-1.5276979e-02
-1.7193528e-02
-1.9585249e-02
-2.2360000e-02
-2.5859077e-02
-3.0053789e-02
-3.5217121e-02
-4.1551206e-02
-4.9392477e-02
-5.9134613e-02
-7.0472906e-02
-8.3340000e-02
-9.7463196e-02
-1.1250921e-01
-1.2789625e-01
-1.4312465e-01
-1.5737146e-01
-1.6970229e-01
-1.7915175e-01
-1.8500000e-01
-1.8436193e-01
-1.7736788e-01
-1.6321908e-01
-1.4029502e-01
-1.0711358e-01
-6.4570378e-02
-1.2302651e-02
 5.2300000e-02
 1.2803259e-01
 2.1418286e-01
 3.0993836e-01
 4.1458030e-01
 5.2332372e-01
 6.3396089e-01
 7.4369056e-01
 8.4858000e-01
 9.4508065e-01
 1.0305371e+00
 1.0965255e+00
 1.1412826e+00
 1.1632047e+00
 1.1616287e+00
 1.1325015e+00
 1.0830000e+00
 1.0141220e+00
 9.2595930e-01
 8.2264201e-01
 7.0949885e-01
 5.8983975e-01
 4.6890766e-01
 3.5119152e-01
 2.3852000e-01
 1.3348781e-01
 3.9219266e-02
-4.4812022e-02
-1.1777216e-01
-1.7700489e-01
-2.2345373e-01
-2.5835991e-01
-2.8250000e-01
-2.9416638e-01
-2.9698886e-01
-2.9193426e-01
-2.8011748e-01
-2.6271167e-01
-2.4191189e-01
-2.1842776e-01
-1.9346000e-01
-1.6825724e-01
-1.4373205e-01
-1.2049537e-01
-1.0013812e-01
-8.2289536e-02
-6.6647562e-02
-5.3550240e-02
-4.2780000e-02
-3.3785097e-02
-2.6365135e-02
-2.0748631e-02
-1.6297263e-02
-1.2765455e-02
-9.9483248e-03
-7.7692671e-03
-5.8200000e-03
-3.9903321e-03
-2.2989247e-03
-7.4155780e-04
 2.6417424e-05
 9.8658705e-06
 2.7161921e-06
-6.0406263e-07
 0.0000000e+00
 1.5541431e-08
-2.0708436e-09
-1.7472339e-10
 7.4675028e-11
-4.9633995e-12
-1.3884731e-12
 3.0878696e-13
 0.0000000e+00
-7.9445261e-15
 1.0585814e-15
 8.9315743e-17
-3.8172655e-17
 2.5372088e-18
 7.0976478e-19
-1.5784685e-19
 0.0000000e+00
 4.0611120e-21
-5.4112954e-22
-4.5656750e-23
 1.9513238e-23
-1.2969797e-24
-3.6282017e-25
 8.0688734e-26
 0.0000000e+00
-2.0759742e-27
 2.7661659e-28
 2.3338985e-29
-9.9748489e-30
 6.6299487e-31
 1.8546775e-31
-4.1246764e-32
 0.0000000e+00
 1.0612041e-33
-1.4140189e-34
-1.1930508e-35
 5.0989799e-36
-3.3891215e-37
-9.4808085e-38
 2.1084672e-38
 0.0000000e+00
-5.4247022e-40
 7.2282336e-41
 6.0986811e-42
-2.6065153e-42
 1.7324636e-43
 4.8464345e-44
-1.0778140e-44
 0.0000000e+00
 2.7730212e-46
-3.6950457e-47
-3.1207883e-48
 1.3811860e-48
-2.0269048e-49
-1.3774545e-48
 1.0157213e-47
 0.0000000e+00
-3.9457541e-46
 1.7742237e-45
 6.3423492e-45
-9.5421515e-44
 2.2326567e-43
 2.6461728e-42
-1.9859208e-41
 0.0000000e+00
 7.7188550e-40
-3.4708145e-39
-1.2407183e-38
 1.8666777e-37
-4.3676213e-37
-5.1765597e-36
 3.8849457e-35
 0.0000000e+00
-1.5099964e-33
 6.7897600e-33
 2.4271476e-32
-3.6516770e-31
 8.5441330e-31
 1.0126614e-29
-7.5999017e-29
-9.2597330e-40
 2.9539214e-27
-1.3282427e-26
-4.7480930e-26
 7.1435712e-25
-1.6714409e-24
-1.9810128e-23
 1.4867262e-22
 0.0000000e+00
-5.7785909e-21
 2.5983669e-20
 9.2884285e-20
-1.3974568e-18
 3.2697462e-18
 3.8753443e-17
-2.9083992e-16
 0.0000000e+00
 1.1304334e-14
-5.0830396e-14
-1.8170432e-13
 2.7337665e-12
-6.3964214e-12
-7.5811191e-11
 5.6895386e-10
 0.0000000e+00
-2.2114035e-08
 9.9436657e-08
 3.5545799e-07
-5.3479144e-06
 1.5989577e-04
 1.3908052e-03
 3.0156984e-03
 4.6400000e-03
 6.4030269e-03
 8.1520110e-03
 1.0061650e-02
 1.2122939e-02
 1.4295731e-02
 1.6609866e-02
 1.9037268e-02
 2.1580000e-02
 2.4264444e-02
 2.7180621e-02
 3.0199757e-02
 3.3386382e-02
 3.6766996e-02
 4.0269474e-02
 4.3974260e-02
 4.8000000e-02
 5.2096043e-02
 5.6454264e-02
 6.1056644e-02
 6.5777320e-02
 7.0798907e-02
 7.5979179e-02
 8.1457272e-02
 8.7160000e-02
 9.3156258e-02
 9.9322795e-02
 1.0569881e-01
 1.1244150e-01
 1.1935563e-01
 1.2653191e-01
 1.3388163e-01
 1.4150000e-01
 1.4927615e-01
 1.5730319e-01
 1.6564933e-01
 1.7421116e-01
 1.8289234e-01
 1.9161718e-01
 2.0072569e-01
 2.1000000e-01
 2.1934717e-01
 2.2874873e-01
 2.3836137e-01
 2.4811806e-01
 2.5781243e-01
 2.6769284e-01
 2.7750842e-01
 2.8740000e-01
 2.9730283e-01
 3.0716123e-01
 3.1690104e-01
 3.2658489e-01
 3.3619360e-01
 3.4567083e-01
 3.5495437e-01
 3.6410000e-01
 3.7297758e-01
 3.8163249e-01
 3.9003206e-01
 3.9805721e-01
 4.0580556e-01
 4.1320592e-01
 4.2016392e-01
 4.2672000e-01
 4.3282754e-01
 4.3855165e-01
 4.4375214e-01
 4.4849258e-01
 4.5274111e-01
 4.5646466e-01
 4.5968797e-01
 4.6232000e-01
 4.6445751e-01
 4.6605767e-01
 4.6715734e-01
 4.6787558e-01
 4.7030772e-01
 4.7424387e-01
 4.7730878e-01
 4.8000000e-01
 4.8213726e-01
 4.8369810e-01
 4.8458659e-01
 4.8508760e-01
 4.8447911e-01
 4.8373479e-01
 4.8218784e-01
 4.8016000e-01
 4.7762729e-01
 4.7450609e-01
 4.7090594e-01
 4.6678931e-01
 4.6220857e-01
 4.5705396e-01
 4.5157818e-01
 4.4580000e-01
 4.3948232e-01
 4.3280207e-01
 4.2572791e-01
 4.1836918e-01
 4.1060049e-01
 4.0255963e-01
 3.9423080e-01
 3.8558000e-01
 3.7670388e-01
 3.6767727e-01
 3.5844149e-01
 3.4883399e-01
 3.3912853e-01
 3.2930583e-01
 3.1936357e-01
 3.0922000e-01
 2.9898801e-01
 2.8868107e-01
 2.7833551e-01
 2.6791374e-01
 2.5754635e-01
 2.4711256e-01
 2.3678185e-01
 2.2644000e-01
 2.1614091e-01
 2.0597417e-01
 1.9593370e-01
 1.8608041e-01
 1.7627891e-01
 1.6681231e-01
 1.5748513e-01
 1.4836000e-01
 1.3940348e-01
 1.3082489e-01
 1.2235201e-01
 1.1409690e-01
 1.0615796e-01
 9.8334381e-02
 9.0781555e-02
 8.3300000e-02
 7.6280033e-02
 6.9388445e-02
 6.2724223e-02
 5.6267525e-02
 4.9999781e-02
 4.3902437e-02
 3.8037687e-02
 3.2500000e-02
 2.7088165e-02
 2.1737405e-02
 1.6749452e-02
 1.1873453e-02
 7.2311463e-03
 2.7074070e-03
 8.7110489e-06
-8.0000000e-05
-5.5355209e-05
-2.0096627e-05
-1.5901474e-06
 6.7961310e-07
-4.5171611e-08
-1.2636413e-08
 2.8102522e-09
 0.0000000e+00
-7.2302671e-11
 9.6340881e-12
 8.1285740e-13
-3.4740712e-13
 2.3090990e-14
 6.4595280e-15
-1.4365550e-15
 0.0000000e+00
 3.6959945e-17
-4.9247886e-18
-4.1551943e-19
 1.7758885e-19
-1.1803737e-20
-3.3020053e-21
 7.3434349e-22
 2.3019653e-34
-1.8893321e-23
 2.5174715e-24
 2.1240675e-25
-9.0780521e-26
 6.0338778e-27
 1.6879312e-27
-3.7538440e-28
-1.1767271e-40
 9.6579571e-30
-1.2868904e-30
-1.0857886e-31
 4.6405521e-32
-3.0844198e-33
-8.6284288e-34
 1.9189038e-34
 0.0000000e+00
-4.9369900e-36
 6.5783734e-37
 5.5503743e-38
-2.3721745e-38
 1.5767051e-39
 4.4107119e-40
-9.8091229e-41
 0.0000000e+00
 2.5237087e-42
-3.3627571e-43
-2.8372607e-44
 1.2126169e-44
-8.0598590e-46
-2.2546839e-46
 5.0142635e-47
 0.0000000e+00
-1.2900787e-48
 1.7189865e-49
 1.4503614e-50
-6.1986995e-51
 4.1200683e-52
 1.1525576e-52
-2.5632097e-53
-8.0349590e-66
 6.5946717e-55
-8.7871786e-56
-7.4140106e-57
 3.1686740e-57
-2.1061117e-58
-5.8916865e-59
 1.3102709e-59
 4.1073399e-72
-3.3710885e-61
 4.4918623e-62
 3.7899212e-63
-1.6197744e-63
 1.0766099e-64
 3.0117340e-65
-6.6978912e-66
 0.0000000e+00
 1.7232454e-67
-2.2961667e-68
-1.9373459e-69
 8.2800224e-70
-5.5034541e-71
-1.5395492e-71
 3.4238526e-72
 0.0000000e+00
-8.8089493e-74
 1.1737629e-74
 9.9033957e-76
-4.2326123e-76
 2.8132759e-77
 7.8699244e-78
-1.7502176e-78
 0.0000000e+00
 4.5029911e-80
-6.0000844e-81
-5.0624542e-82
 2.1636423e-82
-1.4380996e-83
-4.0228459e-84
 8.9369956e-85
 2.6848045e-97
 1.5192162e-86
-1.6874890e-85
-6.1393510e-85
 9.2405208e-84
-2.1621068e-83
-2.5625570e-82
 1.9231682e-81
 2.3431913e-92
-7.4749488e-80
 3.3611411e-79
 1.2015131e-78
-1.8076930e-77
 4.2296099e-77
 5.0129869e-76
-3.7621862e-75
-4.5838540e-86
 1.4622824e-73
-6.5752120e-73
-2.3504528e-72
 3.5362885e-71
-8.2741490e-71
-9.8066255e-70
 7.3597543e-69
 0.0000000e+00
-2.8605811e-67
 1.2862719e-66
 4.5980592e-66
-6.9178432e-65
 1.6186254e-64
 1.9184152e-63
-1.4397475e-62
 0.0000000e+00
 5.5959946e-61
-2.5162617e-60
-8.9949256e-60
 1.3532989e-58
-3.1664263e-58
-3.7528883e-57
 2.8164974e-56
 0.0000000e+00
-1.0947131e-54
 4.9224219e-54
 1.7596269e-53
-2.6473829e-52
 6.1943024e-52
 7.3415652e-51
-5.5097562e-50
-6.7130962e-61
 2.1415259e-48
-9.6294582e-48
-3.4422596e-47
 5.1789269e-46
-1.2117567e-45
-1.4361893e-44
 1.0778428e-43
 1.3132454e-54
-4.1893472e-42
 1.8837570e-41
 6.7338997e-41
-1.0131245e-39
 2.3704918e-39
 2.8095367e-38
-2.1085234e-37
 0.0000000e+00
 8.1953854e-36
-3.6850883e-35
-1.3173151e-34
 1.9819187e-33
-4.6372603e-33
-5.4961392e-32
 4.1247863e-31
 0.0000000e+00
-1.6032173e-29
 7.2089319e-29
 2.5769898e-28
-3.8771165e-27
 9.0716126e-27
 1.0751789e-25
-8.0690884e-25
 0.0000000e+00
 3.1362843e-23
-1.4102430e-22
-5.0412207e-22
 7.5845859e-21
-1.7746288e-20
-2.1033123e-19
 1.5785106e-18
 1.9232599e-29
-6.1353374e-17
 2.7587794e-16
 9.8618578e-16
-1.4837301e-14
 3.4716069e-14
 4.1145922e-13
-3.0879519e-12
-3.7623657e-23
 1.2002217e-10
-5.3968456e-10
-1.9292200e-09
 2.9025380e-08
-6.7913102e-08
-8.0491462e-07
 6.0407873e-06
-4.0000000e-05
-1.4221452e-04
 1.7407547e-03
 6.3108220e-03
 1.1479274e-02
 1.6980223e-02
 2.2836902e-02
 2.9123152e-02
 3.5780000e-02
 4.2885027e-02
 5.0398749e-02
 5.8248093e-02
 6.6431561e-02
 7.5021705e-02
 8.3893239e-02
 9.3070457e-02
 1.0250000e-01
 1.1219557e-01
 1.2202969e-01
 1.3205830e-01
 1.4217660e-01
 1.5235007e-01
 1.6257742e-01
 1.7275632e-01
 1.8270000e-01
 1.9248553e-01
 2.0197160e-01
 2.1111593e-01
 2.1976212e-01
 2.2779397e-01
 2.3533241e-01
 2.4224551e-01
 2.4844000e-01
 2.5395168e-01
 2.5873155e-01
 2.6253281e-01
 2.6561220e-01
 2.6789885e-01
 2.6932484e-01
 2.6986381e-01
 2.6920000e-01
 2.6786665e-01
 2.6554247e-01
 2.6238226e-01
 2.5828792e-01
 2.5339290e-01
 2.4743656e-01
 2.4081286e-01
 2.3362000e-01
 2.2589561e-01
 2.1747873e-01
 2.0875253e-01
 1.9967572e-01
 1.9035547e-01
 1.8083034e-01
 1.7109353e-01
 1.6130000e-01
 1.5151016e-01
 1.4171889e-01
 1.3195435e-01
 1.2234530e-01
 1.1294840e-01
 1.0371905e-01
 9.4713613e-02
 8.5980000e-02
 7.7584070e-02
 6.9519145e-02
 6.1704135e-02
 5.4358882e-02
 4.7472306e-02
 4.0896258e-02
 3.4772210e-02
 2.9100000e-02
 2.3878455e-02
 1.9046230e-02
 1.4527049e-02
 1.0424669e-02
 6.6042173e-03
 3.1717139e-03
 6.1204081e-04
-6.0000000e-05
 1.1481959e-05
-1.5299325e-06
-1.2908507e-07
 5.5169668e-08
-3.6669434e-09
-1.0257994e-09
 2.2813080e-10
 7.1512746e-23
-5.8693900e-12
 7.8207651e-13
 6.5986180e-14
-2.8201834e-14
 1.8744816e-15
 5.2437190e-16
-1.1661674e-16
 0.0000000e+00
 3.0003364e-18
-3.9978475e-19
-3.3731058e-20
 1.4416317e-20
-9.5820440e-22
-2.6805036e-22
 5.9612574e-23
 0.0000000e+00
-1.5337230e-24
 2.0436344e-25
 1.7242766e-26
-7.3693860e-27
 4.8981860e-28
 1.3702476e-28
-3.0486440e-29
 0.0000000e+00
 1.3073949e-30
-2.4578702e-30
-8.4215657e-30
 1.2657477e-28
-2.9614897e-28
-3.5099920e-27
 2.6342066e-26
 3.2095218e-37
-1.0238605e-24
 4.6038303e-24
 1.6457395e-23
-2.4760376e-22
 5.7933916e-22
 6.8664006e-21
-5.1531509e-20
-6.2786077e-31
 2.0029210e-18
-9.0062155e-18
-3.2194679e-17
 4.8437338e-16
-1.1333288e-15
-1.3432355e-14
 1.0080821e-13
 0.0000000e+00
-3.9182021e-12
 1.7618355e-11
 6.2980648e-11
-9.4755251e-10
 2.2170676e-09
 2.6276964e-08
-1.9720545e-07
 0.0000000e+00
 7.6649594e-06
-2.6028301e-05
-1.8986765e-05
-1.0088561e-03
-3.1578278e-05
-8.5278137e-06
 1.8965277e-06
 0.0000000e+00
-4.8794204e-08
 6.5016638e-09
 5.4856520e-10
-2.3445128e-10
 1.5583193e-11
 4.3592792e-12
-9.6947399e-13
-3.0390350e-25
 2.4942800e-14
-3.3235444e-15
-2.8041758e-16
 1.1984767e-16
-7.9658739e-18
-2.2283923e-18
 4.9557928e-19
 1.5535051e-31
-1.2750352e-20
 1.6989416e-21
 1.4334489e-22
-6.1264172e-23
 4.0720247e-24
 1.1391178e-24
-2.5333204e-25
 0.0000000e+00
 6.5177720e-27
-8.6847124e-28
-7.3275567e-29
 3.1317245e-29
-2.0815526e-30
-5.8229842e-31
 1.2949920e-31
 0.0000000e+00
-3.3317787e-33
 4.4394832e-34
 3.7457274e-35
-1.6008864e-35
 1.0640557e-36
 2.9766145e-37
-6.6197875e-38
 0.0000000e+00
 1.7030245e-39
-2.2637104e-40
-1.7116771e-41
-2.2369838e-41
 7.0944194e-41
 8.4713405e-40
-6.3587471e-39
 0.0000000e+00
 2.4715239e-37
-1.1113308e-36
-3.9726939e-36
 5.9769726e-35
-1.3984821e-34
-1.6574986e-33
 1.2439327e-32
 1.5156097e-43
-4.8349038e-31
 2.1740341e-30
 7.7715586e-30
-1.1692417e-28
 2.7357722e-28
 3.2424716e-27
-2.4334359e-26
-2.9649024e-37
 9.4582516e-25
-4.2529412e-24
-1.5203065e-23
 2.2873220e-22
-5.3518380e-22
-6.3430657e-21
 4.7603944e-20
 0.0000000e+00
-1.8502648e-18
 8.3197908e-18
 2.9740905e-17
-4.4745600e-16
 1.0469501e-15
 1.2408584e-14
-9.3124929e-14
 0.0000000e+00
 3.6195694e-12
-1.6275541e-11
-5.8180466e-11
 8.7533311e-10
-2.0480898e-09
-2.4274218e-08
 1.8217508e-07
 0.0000000e+00
-7.0807609e-06
 6.5588929e-05
 3.2330813e-05
-2.3651497e-06
 1.5720360e-07
 4.3976505e-08
-9.7800752e-09
-3.0657852e-21
 2.5162352e-10
-3.3527990e-11
-2.8288588e-12
 1.2090259e-12
-8.0359913e-14
-2.2480072e-14
 4.9994148e-15
 1.5671794e-27
-1.2862584e-16
 1.7138961e-17
 1.4460664e-18
-6.1803433e-19
 4.1078676e-20
 1.1491446e-20
-2.5556192e-21
 0.0000000e+00
 6.5751429e-23
-8.7611572e-24
-7.3920555e-25
 3.1592906e-25
-2.0998749e-26
-5.8742394e-27
 1.3063908e-27
 0.0000000e+00
-3.3611057e-29
 4.4785605e-30
 3.7786981e-31
-1.6149778e-31
 1.0734218e-32
 3.0028153e-33
-6.6780567e-34
 0.0000000e+00
 1.7181424e-35
-2.2893670e-36
-1.9316088e-37
 8.2555028e-38
-5.4871568e-39
-1.5349902e-39
 3.4137136e-40
 1.0701055e-52
-8.7828634e-42
 1.1702871e-42
 9.8740688e-44
-4.2200783e-44
 2.8049450e-45
 7.8466200e-46
-1.7450408e-46
-5.4709490e-59
 4.5133938e-48
-7.0496782e-49
-4.3202636e-49
 5.7620707e-48
-1.3432956e-47
-1.5919249e-46
 1.1947176e-45
 1.4556458e-56
-4.6436146e-44
 2.0880202e-43
 7.4640829e-43
-1.1229815e-41
 2.6275335e-41
 3.1141857e-40
-2.3371589e-39
 0.0000000e+00
 9.0840432e-38
-4.0846769e-37
-1.4601567e-36
 2.1968259e-35
-5.1400966e-35
-6.0921072e-34
 4.5720531e-33
 0.0000000e+00
-1.7770605e-31
 7.9906247e-31
 2.8564229e-30
-4.2975275e-29
 1.0055283e-28
 1.1917648e-27
-8.9440514e-27
 0.0000000e+00
 3.4763639e-25
-1.5631612e-24
-5.5878601e-24
 8.4070123e-23
-1.9670587e-22
-2.3313828e-21
 1.7496747e-20
 2.1318066e-31
-6.8006161e-19
 3.0579246e-18
 1.0931218e-17
-1.6446167e-16
 3.8480469e-16
 4.5607535e-15
-3.4227906e-14
-4.1703338e-25
 1.3303664e-12
-5.9820467e-12
-2.1384129e-11
 3.2172716e-10
-7.5277186e-10
-8.9219468e-09
 6.6958136e-08
 0.0000000e+00
-2.6025214e-06
 1.1702343e-05
 4.3121637e-05
 1.1506232e-03
 2.7359257e-03
 4.3060048e-03
 6.0833927e-03
 7.8400000e-03
 9.6863516e-03
 1.1734233e-02
 1.3901676e-02
 1.6182974e-02
 1.8575621e-02
 2.1108552e-02
 2.3776902e-02
 2.6640000e-02
 2.9627596e-02
 3.2800657e-02
 3.6149652e-02
 3.9607059e-02
 4.3268871e-02
 4.7257210e-02
 5.1348241e-02
 5.5600000e-02
 6.0219417e-02
 6.4914149e-02
 6.9876084e-02
 7.4995545e-02
 8.0450534e-02
 8.6121658e-02
 9.2035160e-02
 9.8180000e-02
 1.0454498e-01
 1.1121067e-01
 1.1803772e-01
 1.2522416e-01
 1.3254352e-01
 1.4009103e-01
 1.4783385e-01
 1.5584000e-01
 1.6412081e-01
 1.7262941e-01
 1.8130907e-01
 1.9003958e-01
 1.9904763e-01
 2.0829592e-01
 2.1764882e-01
 2.2704000e-01
 2.3658507e-01
 2.4634315e-01
 2.5606442e-01
 2.6589340e-01
 2.7570740e-01
 2.8560192e-01
 2.9550038e-01
 3.0538000e-01
 3.1514514e-01
 3.2482120e-01
 3.3445028e-01
 3.4397556e-01
 3.5328489e-01
 3.6243132e-01
 3.7137845e-01
 3.8010000e-01
 3.8852363e-01
 3.9660746e-01
 4.0440873e-01
 4.1194229e-01
 4.1890095e-01
 4.2554023e-01
 4.3177723e-01
 4.3756000e-01
 4.4280823e-01
 4.4765794e-01
 4.5207098e-01
 4.5580647e-01
 4.5910378e-01
 4.6190950e-01
 4.6413696e-01
 4.6578000e-01
 4.6701620e-01
 4.6744966e-01
 4.6975471e-01
 4.7348043e-01
 4.7676003e-01
 4.7964456e-01
 4.8174362e-01
 4.8344000e-01
 4.8446796e-01
 4.8509996e-01
 4.8464849e-01
 4.8387902e-01
 4.8256246e-01
 4.8056341e-01
 4.7809033e-01
 4.7510000e-01
 4.7166647e-01
 4.6754054e-01
 4.6305295e-01
 4.5804923e-01
 4.5260856e-01
 4.4684184e-01
 4.4065199e-01
 4.3410000e-01
 4.2702651e-01
 4.1970702e-01
 4.1204944e-01
 4.0406147e-01
 3.9575113e-01
 3.8716156e-01
 3.7834088e-01
 3.6934000e-01
 3.6011439e-01
 3.5059264e-01
 3.4091448e-01
 3.3109700e-01
 3.2116829e-01
 3.1108720e-01
 3.0085289e-01
 2.9056000e-01
 2.8021962e-01
 2.6979490e-01
 2.5943655e-01
 2.4901351e-01
 2.3865927e-01
 2.2831782e-01
 2.1800989e-01
 2.0782000e-01
 1.9773544e-01
 1.8785549e-01
 1.7807586e-01
 1.6852014e-01
 1.5914184e-01
 1.5000900e-01
 1.4103591e-01
 1.3236000e-01
 1.2387848e-01
 1.1558167e-01
 1.0760037e-01
 9.9716547e-02
 9.2137045e-02
 8.4679163e-02
 7.7541980e-02
 7.0600000e-02
 6.3924072e-02
 5.7443625e-02
 5.1114101e-02
 4.4984098e-02
 3.9098343e-02
 3.3496099e-02
 2.8072450e-02
 2.2680000e-02
 1.7648041e-02
 1.2728587e-02
 8.0812709e-03
 3.5104871e-03
 4.2326023e-04
-1.3304024e-04
-3.9249310e-05
-4.0000000e-05
 2.1354211e-06
-2.8453769e-07
-2.4007313e-08
 1.0260485e-08
-6.8198017e-10
-1.9077874e-10
 4.2427892e-11
 1.3299980e-23
-1.0915924e-12
 1.4545102e-13
 1.2272146e-14
-5.2449926e-15
 3.4861713e-16
 9.7522977e-17
-2.1688446e-17
 0.0000000e+00
 5.5800422e-19
-7.4352188e-20
-6.2733209e-21
 2.6811546e-21
-1.7820739e-22
-4.9852154e-23
 1.1086780e-23
 0.0000000e+00
-2.8524265e-25
 3.8007625e-26
 3.2068192e-27
-1.3705625e-27
 9.1096707e-29
 2.5483607e-29
-5.6673807e-30
 0.0000000e+00
 1.4581139e-31
-1.9428878e-32
-1.6392737e-33
 7.0060916e-34
-4.6567149e-35
-1.3026804e-35
 2.8970725e-36
 9.0815274e-49
-7.4536400e-38
 9.9317250e-39
 8.3796993e-40
-3.5813997e-40
 2.3804367e-41
 6.6590896e-42
-1.4809362e-42
-4.6423286e-55
 3.8101791e-44
-5.0769357e-45
-4.2835655e-46
 1.8307531e-46
-1.2168404e-47
-3.4040179e-48
 7.5703040e-49
 2.3730826e-61
-1.9477014e-50
 2.5952467e-51
 2.1896888e-52
-9.3585108e-53
 6.2202893e-54
 1.7400784e-54
-3.8698158e-55
 0.0000000e+00
 9.9563314e-57
-1.3266477e-57
-1.1193332e-58
 4.7839180e-59
-3.1797104e-60
-8.8949967e-61
 1.9781867e-61
 0.0000000e+00
-5.0895141e-63
 6.7816066e-64
 5.7218484e-65
-2.4454608e-65
 1.6254160e-66
 4.5469771e-67
-1.0112167e-67
 0.0000000e+00
 2.6016765e-69
-3.4666466e-70
-2.9249155e-71
 1.2500796e-71
-8.3088614e-73
-2.3243405e-73
 5.1691749e-74
 1.6203945e-86
-1.3299346e-75
 1.7720932e-76
 1.4951691e-77
-6.3902030e-78
 4.2473543e-79
 1.1881649e-79
-2.6423978e-80
-8.2831922e-93
 6.7984084e-82
-9.0586509e-83
-7.6430560e-84
 3.2665061e-84
-2.1697418e-85
-5.9034625e-86
 7.3100628e-88
 0.0000000e+00
 4.9624806e-85
-2.2329159e-84
-7.9822060e-84
 1.2009344e-82
-2.8099264e-82
-3.3303601e-81
 2.4993952e-80
 0.0000000e+00
-9.7146214e-79
 4.3682189e-78
 1.5615150e-77
-2.3493208e-76
 5.4969017e-76
 6.5149971e-75
-4.8894268e-74
 0.0000000e+00
 1.9004170e-72
-8.5453021e-72
-3.0547044e-71
 4.5958448e-70
-1.0753281e-69
-1.2744924e-68
 9.5649119e-68
 1.1653905e-78
-3.7176793e-66
 1.6716696e-65
 5.9757471e-65
-8.9905937e-64
 2.1036041e-63
 2.4932181e-62
-1.8711301e-61
-2.2797881e-72
 7.2726878e-60
-3.2701936e-59
-1.1690019e-58
 1.7587795e-57
-4.1151630e-57
-4.8773429e-56
 3.6603871e-55
 0.0000000e+00
-1.4227152e-53
 6.3972966e-53
 2.2868530e-52
-3.4406019e-51
 8.0502629e-51
 9.5412728e-50
-7.1606103e-49
 0.0000000e+00
 2.7831781e-47
-1.2514673e-46
-4.4736426e-46
 6.7306567e-45
-1.5748278e-44
-1.8665058e-43
 1.4007901e-42
 0.0000000e+00
-5.4445754e-41
 2.4481754e-40
 8.7515364e-40
-1.3166807e-38
 3.0807475e-38
 3.6513407e-37
-2.7402872e-36
-3.3387705e-47
 1.0650918e-34
-4.7892285e-34
-1.7120141e-33
 2.5757487e-32
-6.0266939e-32
-7.1429134e-31
 5.3606704e-30
 6.5314498e-41
-2.0835794e-28
 9.3688995e-28
 3.3491172e-27
-5.0387929e-26
 1.1789684e-25
 1.3973281e-24
-1.0486779e-23
 0.0000000e+00
 4.0759898e-22
-1.8327853e-21
-6.5516905e-21
 9.8571084e-20
-2.3063498e-19
-2.7335148e-18
 2.0514699e-17
 0.0000000e+00
-7.9736305e-16
 3.5853753e-15
 1.2816705e-14
-1.9282909e-13
 4.5117830e-13
 5.3474219e-12
-4.0131757e-11
 0.0000000e+00
 1.5598367e-09
-7.0138690e-09
-2.5072603e-08
 3.7722075e-07
-8.8261484e-07
-1.1710862e-05
-1.0364093e-04
 1.3000000e-03
 5.3427195e-03
 1.0508339e-02
 1.5973441e-02
 2.1754163e-02
 2.7916697e-02
 3.4538626e-02
 4.1593092e-02
 4.9000000e-02
 5.6763811e-02
 6.4938830e-02
 7.3447769e-02
 8.2236046e-02
 9.1371043e-02
 1.0078809e-01
 1.1042611e-01
 1.2020000e-01
 1.3022960e-01
 1.4033902e-01
 1.5048702e-01
 1.6072437e-01
 1.7090226e-01
 1.8090117e-01
 1.9074964e-01
 2.0028000e-01
 2.0944790e-01
 2.1824078e-01
 2.2641649e-01
 2.3398715e-01
 2.4099215e-01
 2.4739884e-01
 2.5305374e-01
 2.5786000e-01
 2.6187657e-01
 2.6518616e-01
 2.6755241e-01
 2.6905698e-01
 2.6990286e-01
 2.6943383e-01
 2.6812380e-01
 2.6600000e-01
 2.6306378e-01
 2.5915206e-01
 2.5426698e-01
 2.4856746e-01
 2.4212289e-01
 2.3496218e-01
 2.2730036e-01
 2.1904000e-01
 2.1039769e-01
 2.0133670e-01
 1.9204960e-01
 1.8260087e-01
 1.7287260e-01
 1.6308076e-01
 1.5328959e-01
 1.4350000e-01
 1.3372264e-01
 1.2408928e-01
 1.1464541e-01
 1.0536058e-01
 9.6348895e-02
 8.7561143e-02
 7.9052086e-02
 7.0960000e-02
 6.3133547e-02
 5.5646529e-02
 4.8681511e-02
 4.2070407e-02
 3.5884462e-02
 3.0073109e-02
 2.4770264e-02
 1.9920000e-02
 1.5335422e-02
 1.1123442e-02
 7.2674815e-03
 3.8144822e-03
 8.8927229e-04
-1.2407271e-04
 8.3297950e-06
 0.0000000e+00
-2.4144564e-07
 3.2171821e-08
 2.7144347e-09
-1.1601222e-09
 7.7109448e-11
 2.1570779e-11
-4.7971943e-12
 0.0000000e+00
 1.2342307e-13
-1.6445710e-14
-1.3875747e-15
 5.9303555e-16
-3.9417091e-17
-1.1026630e-17
 2.4522474e-18
 0.0000000e+00
-6.3091860e-20
 8.4067785e-21
 7.0930554e-22
-3.0315009e-22
 2.0149374e-23
 5.6366332e-24
-1.2535488e-24
 0.0000000e+00
 3.2251529e-26
-4.2974080e-27
-3.6258550e-28
 1.5496672e-28
-1.0303163e-29
-2.9184822e-30
 9.1942957e-31
 7.1915505e-42
-1.0846474e-29
 4.8699676e-29
 1.7407994e-28
-2.6190539e-27
 6.1280184e-27
 7.2630045e-26
-5.4507974e-25
 0.0000000e+00
 2.1186099e-23
-9.5264152e-23
-3.4054247e-22
 5.1235082e-21
-1.1987899e-20
-1.4208209e-19
 1.0663090e-18
 2.5983852e-29
-4.1445178e-17
 1.8635993e-16
 6.6618416e-16
-1.0022832e-14
 2.3451256e-14
 2.7794723e-13
-2.0859605e-12
 0.0000000e+00
 8.1076881e-11
-3.6456549e-10
-1.3032188e-09
 1.9607105e-08
-4.5876379e-08
-5.4373261e-07
 4.0806477e-06
 0.0000000e+00
-5.4309288e-05
-1.4518210e-03
-3.9165236e-03
-6.0787823e-03
-8.0415627e-03
-9.6969696e-03
-1.1356324e-02
-1.2940000e-02
-1.4622058e-02
-1.6435195e-02
-1.8699138e-02
-2.1276308e-02
-2.4488146e-02
-2.8462268e-02
-3.3201621e-02
-3.9100000e-02
-4.6331789e-02
-5.5393870e-02
-6.6163926e-02
-7.8500273e-02
-9.2196667e-02
-1.0696543e-01
-1.2230156e-01
-1.3762000e-01
-1.5239030e-01
-1.6548916e-01
-1.7611082e-01
-1.8344812e-01
-1.8533143e-01
-1.8070136e-01
-1.6919670e-01
-1.5000000e-01
-1.2015882e-01
-8.1212093e-02
-3.2406998e-02
 2.7258164e-02
 9.9288057e-02
 1.8169961e-01
 2.7394374e-01
 3.7592000e-01
 4.8342405e-01
 5.9364621e-01
 7.0416415e-01
 8.1121222e-01
 9.1121261e-01
 1.0009599e+00
 1.0751298e+00
 1.1275600e+00
 1.1578495e+00
 1.1656251e+00
 1.1454311e+00
 1.1034058e+00
 1.0411736e+00
 9.6043057e-01
 8.6145706e-01
 7.5156000e-01
 6.3385723e-01
 5.1264430e-01
 3.9352581e-01
 2.7880391e-01
 1.7038275e-01
 7.2417799e-02
-1.5552604e-02
-9.2480000e-02
-1.5728775e-01
-2.0787373e-01
-2.4697251e-01
-2.7508462e-01
-2.9106864e-01
-2.9695839e-01
-2.9454691e-01
-2.8530000e-01
-2.6942599e-01
-2.4983680e-01
-2.2722214e-01
-2.0261867e-01
-1.7738926e-01
-1.5252938e-01
-1.2868270e-01
-1.0722000e-01
-8.8513917e-02
-7.2098567e-02
-5.7938377e-02
-4.6512430e-02
-3.6846714e-02
-2.8895884e-02
-2.2602624e-02
-1.7800000e-02
-1.3960428e-02
-1.0881063e-02
-8.5262084e-03
-6.5100662e-03
-4.6448823e-03
-2.8958498e-03
-1.2585442e-03
-1.4000000e-04
 6.1524192e-05
-5.5954185e-06
-4.7210253e-07
 2.0177190e-07
-1.3411104e-08
-3.7516538e-09
 8.3434224e-10
 0.0000000e+00
-2.1466107e-11
 2.8602866e-12
 2.4133111e-13
-1.0314250e-13
 6.8555373e-15
 1.9177842e-15
-4.2650213e-16
 0.0000000e+00
 1.0973123e-17
-1.4621318e-18
-1.2336452e-19
 5.2724763e-20
-3.5044388e-21
-9.8033996e-22
 2.1802093e-22
 0.0000000e+00
-5.6092815e-24
 7.4741792e-25
 6.3061930e-26
-2.6952038e-26
 1.7914119e-27
 5.0113378e-28
-1.1144874e-28
 0.0000000e+00
 2.8673731e-30
-3.8206784e-31
-3.2236229e-32
 1.3777442e-32
-9.1574051e-34
-2.5617141e-34
 5.6970777e-35
 0.0000000e+00
-1.4657543e-36
 1.9530684e-37
 1.6478634e-38
-7.0428034e-39
 4.6811160e-40
 1.3095064e-40
-2.9122531e-41
-1.8258229e-53
 7.4926969e-43
-9.9837671e-44
-8.4236088e-45
 3.6001662e-45
-2.3929105e-46
-6.6940332e-47
 1.4890720e-47
 0.0000000e+00
-5.2904527e-49
 7.0766898e-49
 2.3515858e-48
-3.5316988e-47
 8.2629916e-47
 9.7933874e-46
-7.3498190e-45
-1.7910064e-55
 2.8567195e-43
-1.2845355e-42
-4.5918520e-42
 6.9085045e-41
-1.6164404e-40
-1.9158255e-39
 1.4378039e-38
 0.0000000e+00
-5.5884404e-37
 2.5128649e-36
 8.9827830e-36
-1.3514721e-34
 3.1621518e-34
 3.7478221e-33
-2.8126953e-32
 0.0000000e+00
 1.0932353e-30
-4.9157769e-30
-1.7572515e-29
 2.6438091e-28
-6.1859405e-28
-7.3316545e-27
 5.5023184e-26
 0.0000000e+00
-2.1386350e-24
 9.6164590e-24
 3.4376128e-23
-5.1719357e-22
 1.2101209e-21
 1.4342505e-20
-1.0763877e-19
 0.0000000e+00
 4.1836919e-18
-1.8812140e-17
-6.7248094e-17
 1.0117568e-15
-2.3672917e-15
-2.8057439e-14
 2.1056770e-13
 0.0000000e+00
-8.1843221e-12
 3.6801136e-11
 1.3155368e-10
-1.9792432e-09
 4.6310003e-09
 5.4887198e-08
-4.1192181e-07
 0.0000000e+00
 2.7612093e-05
 8.2863300e-04
 2.4468286e-03
 4.0268826e-03
 5.7585241e-03
 7.5153740e-03
 9.3417498e-03
 1.1360000e-02
 1.3491701e-02
 1.5753491e-02
 1.8141506e-02
 2.0644652e-02
 2.3251754e-02
 2.6111489e-02
 2.9087044e-02
 3.2200000e-02
 3.5523011e-02
 3.8977248e-02
 4.2598051e-02
 4.6510055e-02
 5.0586465e-02
 5.4834658e-02
 5.9379724e-02
 6.4000000e-02
 6.8968260e-02
 7.4068468e-02
 7.9421817e-02
 8.5064333e-02
 9.0950061e-02
 9.7062542e-02
 1.0333381e-01
 1.0998000e-01
 1.1680468e-01
 1.2390878e-01
 1.3117046e-01
 1.3870866e-01
 1.4643080e-01
 1.5434234e-01
 1.6258379e-01
 1.7108000e-01
 1.7973151e-01
 1.8840399e-01
 1.9739091e-01
 2.0661136e-01
 2.1595026e-01
 2.2530943e-01
 2.3484307e-01
 2.4456000e-01
 2.5429399e-01
 2.6409732e-01
 2.7393177e-01
 2.8379813e-01
 2.9369951e-01
 3.0359166e-01
 3.1337161e-01
 3.2306000e-01
 3.3271951e-01
 3.4224235e-01
 3.5160174e-01
 3.6079379e-01
 3.6977769e-01
 3.7851214e-01
 3.8700966e-01
 3.9520000e-01
 4.0299820e-01
 4.1057648e-01
 4.1766994e-01
 4.2439199e-01
 4.3065153e-01
 4.3651928e-01
 4.4192227e-01
 4.4682000e-01
 4.5125926e-01
 4.5516241e-01
 4.5858828e-01
 4.6142466e-01
 4.6373318e-01
 4.6554278e-01
 4.6685689e-01
 4.6748000e-01
 4.6917646e-01
 4.7288225e-01
 4.7619487e-01
 4.7911307e-01
 4.8136868e-01
 4.8327001e-01
 4.8429963e-01
 4.8496000e-01
 4.8483694e-01
 4.8405734e-01
 4.8281230e-01
 4.8094666e-01
 4.7864198e-01
 4.7567124e-01
 4.7229053e-01
 4.6832000e-01
 4.6395100e-01
 4.5897591e-01
 4.5359990e-01
 4.4795449e-01
 4.4182216e-01
 4.3528240e-01
 4.2833010e-01
 4.2110000e-01
 4.1346000e-01
 4.0551230e-01
 3.9730006e-01
 3.8875767e-01
 3.7994985e-01
 3.7097747e-01
 3.6184585e-01
 3.5234000e-01
 3.4267305e-01
 3.3289042e-01
 3.2299549e-01
 3.1293120e-01
 3.0271038e-01
 2.9244355e-01
 2.8210436e-01
 2.7170000e-01
 2.6131682e-01
 2.5089654e-01
 2.4054134e-01
 2.3019874e-01
 2.1987508e-01
 2.0965331e-01
 1.9956849e-01
 1.8964000e-01
 1.7983671e-01
 1.7022659e-01
 1.6085301e-01
 1.5166394e-01
 1.4260875e-01
 1.3392406e-01
 1.2542669e-01
 1.1704000e-01
 1.0903614e-01
 1.0115490e-01
 9.3497337e-02
 8.5997320e-02
 7.8811611e-02
 7.1867905e-02
 6.5120191e-02
 5.8600000e-02
 5.2252011e-02
 4.6103049e-02
 4.0129351e-02
 3.4486252e-02
 2.9051112e-02
 2.3663445e-02
 1.8540070e-02
 1.3600000e-02
 8.9082198e-03
 4.3923581e-03
 3.9717229e-04
-6.8685658e-05
-4.0725551e-05
-6.7893583e-05
 7.5933003e-06
 0.0000000e+00
-1.9536179e-07
 2.6031303e-08
 2.1963404e-09
-9.3869392e-10
 6.2391847e-11
 1.7453642e-11
-3.8815712e-12
 0.0000000e+00
 9.9865758e-14
-1.3306777e-14
-1.1227334e-15
 4.7984501e-16
-3.1893694e-17
-8.9220171e-18
 1.9841958e-18
 0.0000000e+00
-5.1049745e-20
 6.8022072e-21
 5.7392296e-22
-2.4528893e-22
 1.6303536e-23
 4.5607895e-24
-1.0142885e-24
 0.0000000e+00
 2.6095796e-26
-3.4771773e-27
-2.9338005e-28
 1.2538770e-28
-8.3341013e-30
-2.3314011e-30
 5.1848773e-31
 0.0000000e+00
-1.3339745e-32
 1.7774763e-33
 1.4997109e-34
-6.4096145e-35
 4.2602565e-36
 1.1917742e-36
-2.6504247e-37
-1.6616708e-49
 6.8190600e-39
-9.0861685e-40
-7.6662775e-41
 3.2764903e-41
-2.1777736e-42
-6.0921552e-43
 1.3548538e-43
 8.4941900e-56
-3.4857922e-45
 4.6447010e-46
 3.9188759e-47
-1.6748884e-47
 1.1132423e-48
 3.1142103e-49
-6.9257916e-50
-4.3420913e-62
 1.7818800e-51
-2.3742953e-52
-2.0032654e-53
 8.5617559e-54
-5.6907130e-55
-1.5919335e-55
 3.5403516e-56
 0.0000000e+00
-9.1086799e-58
 1.2137010e-58
 1.0240366e-59
-4.3766299e-60
 2.9089996e-61
 8.1377040e-62
-1.8097699e-62
 0.0000000e+00
 4.6562085e-64
-6.2042415e-65
-5.2347078e-66
 2.2372617e-66
-1.4870331e-67
-4.1598615e-68
 9.2512485e-69
 0.0000000e+00
-2.3801778e-70
 3.1715070e-71
 2.6758972e-72
-1.1436517e-72
 7.6014705e-74
 2.1264533e-74
-4.7290872e-75
 0.0000000e+00
 1.2167080e-76
-1.6212226e-77
-1.3678750e-78
 5.8461607e-79
-3.8857476e-80
-1.0870082e-80
 2.4174322e-81
 0.0000000e+00
-6.2196114e-83
 8.2873617e-84
 6.9900804e-85
-2.9542627e-85
 1.1861428e-86
-8.9282674e-86
 7.1052164e-85
 0.0000000e+00
-2.7664475e-83
 1.2439457e-82
 4.4467552e-82
-6.6902044e-81
 1.5653629e-80
 1.8552878e-79
-1.3923711e-78
 0.0000000e+00
 5.4118526e-77
-2.4334615e-76
-8.6989382e-76
 1.3087672e-74
-3.0622317e-74
-3.6293956e-73
 2.7238176e-72
 0.0000000e+00
-1.0586904e-70
 4.7604444e-70
 1.7017246e-69
-2.5602680e-68
 5.9904724e-68
 7.0999833e-67
-5.3284519e-66
-1.2984389e-76
 2.0710568e-64
-9.3125908e-64
-3.3289885e-63
 5.0085089e-62
-1.1718826e-61
-1.3889300e-60
 1.0423752e-59
 2.5400634e-70
-4.0514924e-58
 1.8217700e-57
 6.5123137e-57
-9.7978656e-56
 2.2924883e-55
 2.7170859e-54
-2.0391403e-53
 0.0000000e+00
 7.9257077e-52
-3.5638266e-51
-1.2739675e-50
 1.9167016e-49
-4.4846664e-49
-5.3152830e-48
 3.9890559e-47
 0.0000000e+00
-1.5504618e-45
 6.9717145e-45
 2.4921912e-44
-3.7495359e-43
 8.7731017e-43
 1.0397991e-41
-7.8035666e-41
 0.0000000e+00
 3.0330816e-39
-1.3638375e-38
-4.8753341e-38
 7.3350072e-37
-1.7162328e-36
-2.0341007e-35
 1.5265680e-34
 0.0000000e+00
-5.9334477e-33
 2.6679988e-32
 9.5373431e-32
-1.4349064e-30
 3.3573701e-30
 3.9791972e-29
-2.9863396e-28
 0.0000000e+00
 1.1607271e-26
-5.2192567e-26
-1.8657370e-25
 2.8070270e-24
-6.5678350e-24
-7.7842807e-23
 5.8420089e-22
 0.0000000e+00
-2.2706655e-20
 1.0210140e-19
 3.6498369e-19
-5.4912297e-18
 1.2848288e-17
 1.5227952e-16
-1.1428395e-15
 0.0000000e+00
 4.4419758e-14
-1.9973524e-13
-7.1399715e-13
 1.0742185e-11
-2.5134386e-11
-2.9789590e-10
 2.2356729e-09
 5.4478951e-20
-8.6895885e-08
 3.9073087e-07
 1.3967526e-06
-2.6014335e-05
-4.0323196e-05
 4.9525708e-04
 4.5471815e-03
 9.5800000e-03
 1.4923928e-02
 2.0660698e-02
 2.6794952e-02
 3.3312450e-02
 4.0246105e-02
 4.7629116e-02
 5.5353243e-02
 6.3420000e-02
 7.1847300e-02
 8.0637803e-02
 8.9697374e-02
 9.9041230e-02
 1.0865537e-01
 1.1842932e-01
 1.2839231e-01
 1.3850000e-01
 1.4863563e-01
 1.5886100e-01
 1.6906568e-01
 1.7911412e-01
 1.8895296e-01
 1.9856183e-01
 2.0783257e-01
 2.1670000e-01
 2.2492973e-01
 2.3265009e-01
 2.3982222e-01
 2.4626354e-01
 2.5203067e-01
 2.5708650e-01
 2.6125328e-01
 2.6458000e-01
 2.6716784e-01
 2.6886712e-01
 2.6985656e-01
 2.6952897e-01
 2.6840947e-01
 2.6655771e-01
 2.6360255e-01
 2.5990000e-01
 2.5525731e-01
 2.4970655e-01
 2.4329301e-01
 2.3628620e-01
 2.2881558e-01
 2.2056602e-01
 2.1196688e-01
 2.0302000e-01
 1.9375948e-01
 1.8432215e-01
 1.7465276e-01
 1.6485884e-01
 1.5507003e-01
 1.4527940e-01
 1.3549952e-01
 1.2580000e-01
 1.1635600e-01
 1.0704861e-01
 9.7962901e-02
 8.9118090e-02
 8.0597593e-02
 7.2417505e-02
 6.4509961e-02
 5.6960000e-02
 4.9943261e-02
 4.3240047e-02
 3.6947104e-02
 3.1109697e-02
 2.5727375e-02
 2.0765230e-02
 1.6124820e-02
 1.1880000e-02
 7.9519051e-03
 4.4186230e-03
 1.2634388e-03
 4.4068422e-05
-1.0025267e-05
-2.7717096e-06
 6.1640933e-07
 3.8645482e-19
-1.5859090e-08
 2.1131704e-09
 1.7829463e-10
-7.6201344e-11
 5.0648486e-12
 1.4168527e-12
-3.1509839e-13
 0.0000000e+00
 8.1069077e-15
-1.0802182e-15
-9.1141307e-17
 3.8952883e-17
-2.5890679e-18
-7.2427197e-19
 1.6107315e-19
 1.0098403e-31
-4.1441189e-21
 5.5218993e-22
 4.6589948e-23
-1.9912078e-23
 1.3234893e-24
 3.7023601e-25
-8.2337966e-26
-5.1621387e-38
 2.1184061e-27
-2.8227105e-28
-2.3818065e-29
 1.0209480e-29
-7.4849610e-31
-1.0420190e-30
 6.4419537e-30
 0.0000000e+00
-2.4875028e-28
 1.1185110e-27
 3.9983608e-27
-6.0155888e-26
 1.4075174e-25
 1.6682074e-24
-1.2519695e-23
 0.0000000e+00
 4.8661413e-22
-2.1880802e-21
-7.8217693e-21
 1.1767959e-19
-2.7534475e-19
-3.2634207e-18
 2.4491579e-17
 0.0000000e+00
-9.5193597e-16
 4.2804187e-15
 1.5301289e-14
-2.3021000e-13
 5.3864152e-13
 6.3840471e-12
-4.7911504e-11
 0.0000000e+00
 1.8622190e-09
-8.3735434e-09
-2.9933055e-08
 4.5034693e-07
-1.0537142e-06
-1.2176254e-05
 1.6489847e-04
-1.1000000e-03
-3.4339704e-03
-5.6889934e-03
-7.7655934e-03
-9.3934813e-03
-1.1050092e-02
-1.2657837e-02
-1.4286677e-02
-1.6120000e-02
-1.8270935e-02
-2.0707220e-02
-2.3843122e-02
-2.7743301e-02
-3.2247332e-02
-3.7818667e-02
-4.4961517e-02
-5.3720000e-02
-6.3981123e-02
-7.6078271e-02
-8.9699565e-02
-1.0422894e-01
-1.1949243e-01
-1.3487042e-01
-1.4968712e-01
-1.6328000e-01
-1.7472168e-01
-1.8215932e-01
-1.8512434e-01
-1.8254683e-01
-1.7216801e-01
-1.5338171e-01
-1.2611249e-01
-9.0100000e-02
-4.1840672e-02
 1.6381901e-02
 8.5024168e-02
 1.6513112e-01
 2.5706903e-01
 3.5707163e-01
 4.6330452e-01
 5.7358000e-01
 6.8399021e-01
 7.9202787e-01
 8.9478305e-01
 9.8518557e-01
 1.0617444e+00
 1.1207004e+00
 1.1556454e+00
 1.1641600e+00
 1.1501465e+00
 1.1146462e+00
 1.0540092e+00
 9.7504019e-01
 8.8060836e-01
 7.7306098e-01
 6.5543133e-01
 5.3476000e-01
 4.1466674e-01
 2.9886678e-01
 1.9019811e-01
 8.9767914e-02
-1.5227017e-03
-7.9305777e-02
-1.4545996e-01
-1.9982000e-01
-2.4175893e-01
-2.7015951e-01
-2.8846376e-01
-2.9721861e-01
-2.9578065e-01
-2.8694849e-01
-2.7260838e-01
-2.5400000e-01
-2.3144563e-01
-2.0711022e-01
-1.8199512e-01
-1.5689358e-01
-1.3303034e-01
-1.1103367e-01
-9.1528533e-02
-7.4860000e-02
-6.0537998e-02
-4.8452947e-02
-3.8274042e-02
-3.0282138e-02
-2.3722454e-02
-1.8541478e-02
-1.4542404e-02
-1.1440000e-02
-8.9260238e-03
-6.8494593e-03
-4.9744496e-03
-3.2086568e-03
-1.5732356e-03
-1.4781472e-04
 4.4172403e-05
 0.0000000e+00
 1.1318253e-06
-1.5081192e-07
-1.2724462e-08
 5.4383077e-09
-3.6146613e-10
-1.0111739e-10
 2.2487818e-11
 0.0000000e+00
-5.7857062e-13
 7.7092592e-14
 6.5045371e-15
-2.7799741e-15
 1.8477559e-16
 5.1689558e-17
-1.1495406e-17
 0.0000000e+00
 2.9575586e-19
-3.9408475e-20
-3.3250132e-21
 1.4210774e-21
-9.4454264e-23
-2.6422859e-23
 5.8762638e-24
 0.0000000e+00
-1.5118557e-25
 2.0144969e-26
 1.6996925e-27
-7.2643157e-28
 4.8283478e-29
 1.3506934e-29
-3.0038501e-30
-1.8832492e-42
 7.7283593e-32
-1.0297779e-32
-8.6885505e-34
 3.7133996e-34
-2.4681726e-35
-6.9045242e-36
 1.5355191e-36
 9.6268624e-49
-3.9506111e-38
 5.2640567e-39
 4.4414452e-40
-1.8982293e-40
 1.2616895e-41
 3.5294800e-42
-7.8493232e-43
 0.0000000e+00
 2.0194879e-44
-2.6908999e-45
-2.2703957e-46
 9.7036505e-47
-6.4545219e-48
-1.8631290e-48
 8.4340508e-49
 0.0000000e+00
-1.7196168e-47
 7.7278224e-47
 2.7624305e-46
-4.1561129e-45
 9.7244036e-45
 1.1525485e-43
-8.6497380e-43
 0.0000000e+00
 3.3619706e-41
-1.5117237e-40
-5.4039857e-40
 8.1303708e-39
-1.9023306e-38
-2.2546662e-37
 1.6920998e-36
 0.0000000e+00
-6.5768347e-35
 2.9573004e-34
 1.0571515e-33
-1.5904989e-32
 3.7214229e-32
 4.4106772e-31
-3.3101601e-30
 0.0000000e+00
 1.2865893e-28
-5.7852012e-28
-2.0680462e-27
 3.1114040e-26
-7.2800112e-26
-8.6283608e-25
 6.4754808e-24
 0.0000000e+00
-2.5168827e-22
 1.1317265e-21
 4.0456030e-21
-6.0866653e-20
 1.4241478e-19
 1.6879179e-18
-1.2667621e-17
 0.0000000e+00
 4.9236367e-16
-2.2139332e-15
-7.9141866e-15
 1.1907003e-13
-2.7859806e-13
-3.3019793e-12
 2.4780957e-11
 0.0000000e+00
-9.6318347e-10
 4.3309936e-09
 1.5482080e-08
-2.3293002e-07
 5.4500579e-07
 6.4594771e-06
-4.8477598e-05
 6.6000000e-04
 2.1417609e-03
 3.7112698e-03
 5.4424926e-03
 7.1979586e-03
 8.9892164e-03
 1.0974129e-02
 1.3100558e-02
 1.5340000e-02
 1.7691563e-02
 2.0174129e-02
 2.2783866e-02
 2.5580322e-02
 2.8526609e-02
 3.1619442e-02
 3.4917202e-02
 3.8340000e-02
 4.1896947e-02
 4.5784986e-02
 4.9852247e-02
 5.4011712e-02
 5.8536991e-02
 6.3174056e-02
 6.8053486e-02
 7.3100000e-02
 7.8430239e-02
 8.4043075e-02
 8.9841052e-02
 9.5930098e-02
 1.0219676e-01
 1.0875702e-01
 1.1551848e-01
 1.2260000e-01
 1.2985569e-01
 1.3731770e-01
 1.4500436e-01
 1.5288780e-01
 1.6108345e-01
 1.6950911e-01
 1.7814845e-01
 1.8684000e-01
 1.9573799e-01
 2.0491010e-01
 2.1425026e-01
 2.2361215e-01
 2.3308901e-01
 2.4277893e-01
 2.5253398e-01
 2.6230000e-01
 2.7215088e-01
 2.8199587e-01
 2.9189984e-01
 3.0179475e-01
 3.1161513e-01
 3.2129973e-01
 3.3096249e-01
 3.4052000e-01
 3.4993508e-01
 3.5912154e-01
 3.6815142e-01
 3.7695715e-01
 3.8549973e-01
 3.9370717e-01
 4.0158085e-01
 4.0930000e-01
 4.1639781e-01
 4.2316810e-01
 4.2956322e-01
 4.3551483e-01
 4.4095120e-01
 4.4593837e-01
 4.5054223e-01
 4.5450000e-01
 4.5795964e-01
 4.6095147e-01
 4.6339745e-01
 4.6524478e-01
 4.6659051e-01
 4.6738940e-01
 4.6857204e-01
 4.7212000e-01
 4.7564069e-01
 4.7870318e-01
 4.8098834e-01
 4.8290971e-01
 4.8415649e-01
 4.8492349e-01
 4.8492671e-01
 4.8416000e-01
 4.8315610e-01
 4.8134233e-01
 4.7905121e-01
 4.7623056e-01
 4.7302455e-01
 4.6906680e-01
 4.6473898e-01
 4.5994000e-01
 4.5461660e-01
 4.4898443e-01
 4.4295303e-01
 4.3653412e-01
 4.2962992e-01
 4.2240729e-01
 4.1487399e-01
 4.0700000e-01
 3.9881236e-01
 3.9031129e-01
 3.8157584e-01
 3.7263117e-01
 3.6350331e-01
 3.5408479e-01
 3.4444776e-01
 3.3468000e-01
 3.2479215e-01
 3.1478232e-01
 3.0456971e-01
 2.9431698e-01
 2.8397989e-01
 2.7360011e-01
 2.6319930e-01
 2.5280000e-01
 2.4241736e-01
 2.3208131e-01
 2.2174366e-01
 2.1151208e-01
 2.0139578e-01
 1.9140966e-01
 1.8162538e-01
 1.7196000e-01
 1.6253765e-01
 1.5331119e-01
 1.4426587e-01
 1.3547947e-01
 1.2697112e-01
 1.1853677e-01
 1.1048632e-01
 1.0258000e-01
 9.4842619e-02
 8.7373878e-02
 8.0095423e-02
 7.3107555e-02
 6.6321905e-02
 5.9783346e-02
 5.3391633e-02
 4.7200000e-02
 4.1195850e-02
 3.5509856e-02
 3.0029165e-02
 2.4623468e-02
 1.9451396e-02
 1.4502958e-02
 9.7505839e-03
 5.1400000e-03
 1.2299851e-03
-1.4569573e-04
 3.8822498e-06
-7.7276172e-05
-1.9208352e-06
-5.1548408e-07
 1.1464015e-07
 0.0000000e+00
-2.9494823e-09
 3.9300861e-10
 3.3159335e-11
-1.4171968e-11
 9.4196335e-13
 2.6350705e-13
-5.8602173e-14
-3.6740347e-26
 1.5077272e-15
-2.0089959e-16
-1.6950511e-17
 7.2444788e-18
-4.8151629e-19
-1.3470050e-19
 2.9956474e-20
 0.0000000e+00
-7.7072553e-22
 1.0269659e-22
 8.6648244e-24
-3.7032593e-24
 2.4614327e-25
 6.8856698e-26
-1.5313261e-26
-9.6005741e-39
 3.9398231e-28
-5.2496820e-29
-4.4293168e-30
 1.8930457e-30
-1.2582442e-31
-3.5198420e-32
 7.8278888e-33
 4.9076567e-45
-2.0139733e-34
 2.6835517e-35
 2.2641944e-36
-9.6769406e-37
 6.4319390e-38
 1.7992858e-38
-4.0014890e-39
 0.0000000e+00
 1.0295103e-40
-1.3717878e-41
-1.1574192e-42
 4.9466941e-43
-3.2879022e-44
-9.1976552e-45
 2.0454959e-45
 0.0000000e+00
-5.2626884e-47
 7.0123555e-48
 5.9165382e-49
-2.5286693e-49
 1.6807219e-50
 4.7016912e-51
-1.0456241e-51
 0.0000000e+00
 2.6902004e-53
-3.5846017e-54
-3.0244378e-55
 1.2926145e-55
-8.5915762e-57
-2.4034278e-57
 5.3450597e-58
 0.0000000e+00
-1.3751865e-59
 1.8323899e-60
 1.5460432e-61
-6.6076341e-62
 4.3918735e-63
 1.2285931e-63
-2.7323073e-64
 0.0000000e+00
 7.0297290e-66
-9.3668779e-67
-7.9031206e-68
 3.3777147e-68
-2.2450541e-69
-6.2803671e-70
 1.3967109e-70
 0.0000000e+00
-3.5934827e-72
 4.7881951e-73
 4.0399462e-74
-1.7266326e-74
 1.1476350e-75
 3.2104212e-76
-7.1397580e-77
 0.0000000e+00
 1.8369297e-78
-2.4476472e-79
-2.0651546e-80
 8.8262641e-81
-5.8665227e-82
-1.6411149e-82
 3.6497273e-83
 2.2881675e-95
-9.3882469e-85
 1.2429332e-85
 7.6025469e-87
 3.9934295e-86
-1.0369444e-85
-1.2324700e-84
 9.2501498e-84
 2.2540840e-94
-3.5953452e-82
 1.6166616e-81
 5.7791089e-81
-8.6947489e-80
 2.0343829e-79
 2.4111761e-78
-1.8095587e-77
-4.4095386e-88
 7.0333725e-76
-3.1625845e-75
-1.1305347e-74
 1.7009050e-73
-3.9797493e-73
-4.7168489e-72
 3.5399383e-71
 8.6261334e-82
-1.3758993e-69
 6.1867869e-69
 2.2116018e-68
-3.3273853e-67
 7.7853606e-67
 9.2273073e-66
-6.9249830e-65
 0.0000000e+00
 2.6915947e-63
-1.2102865e-62
-4.3264327e-62
 6.5091774e-61
-1.5230065e-60
-1.8050865e-59
 1.3546956e-58
 0.0000000e+00
-5.2654160e-57
 2.3676157e-56
 8.4635580e-56
-1.2733539e-54
 2.9793723e-54
 3.5311895e-53
-2.6501152e-52
 0.0000000e+00
 1.0300438e-50
-4.6316339e-50
-1.6556784e-49
 2.4909910e-48
-5.8283792e-48
-6.9078684e-47
 5.1842720e-46
 0.0000000e+00
-2.0150171e-44
 9.0606061e-44
 3.2389110e-43
-4.8729862e-42
 1.1401732e-41
 1.3513476e-40
-1.0141701e-39
 0.0000000e+00
 3.9418651e-38
-1.7724756e-37
-6.3361003e-37
 9.5327500e-36
-2.2304570e-35
-2.6435656e-34
 1.9839642e-33
 0.0000000e+00
-7.7112499e-32
 3.4673948e-31
 1.2394958e-30
-1.8648385e-29
 4.3633180e-29
 5.1714594e-28
-3.8811180e-27
 0.0000000e+00
 1.5085086e-25
-6.7830703e-25
-2.4247562e-24
 3.6480791e-23
-8.5357147e-23
-1.0116636e-21
 7.5924138e-21
 0.0000000e+00
-2.9510110e-19
 1.3269341e-18
 4.7434149e-18
-7.1365329e-17
 1.6697941e-16
 1.9790609e-15
-1.4852614e-14
-3.6192899e-25
 5.7728975e-13
-2.5958068e-12
-9.2792769e-12
 1.3960800e-10
-3.2665246e-10
-3.8715261e-09
 2.9055337e-08
 7.0802142e-19
-1.1293196e-06
 5.0780314e-06
-9.4464658e-05
 4.7689270e-04
 3.6102619e-03
 8.6386497e-03
 1.3932000e-02
 1.9620000e-02
 2.5620796e-02
 3.2077077e-02
 3.8984721e-02
 4.6268923e-02
 5.3887167e-02
 6.1929368e-02
 7.0313523e-02
 7.9020000e-02
 8.7995577e-02
 9.7340125e-02
 1.0689849e-01
 1.1662527e-01
 1.2656434e-01
 1.3665868e-01
 1.4678662e-01
 1.5700000e-01
 1.6721694e-01
 1.7729113e-01
 1.8717592e-01
 1.9686955e-01
 2.0615162e-01
 2.1509766e-01
 2.2352126e-01
 2.3130000e-01
 2.3851112e-01
 2.4514039e-01
 2.5110649e-01
 2.5620090e-01
 2.6050830e-01
 2.6406023e-01
 2.6681587e-01
 2.6858000e-01
 2.6970566e-01
 2.6974028e-01
 2.6867610e-01
 2.6688631e-01
 2.6417462e-01
 2.6076841e-01
 2.5611420e-01
 2.5074000e-01
 2.4454548e-01
 2.3762712e-01
 2.3015910e-01
 2.2209791e-01
 2.1359218e-01
 2.0466807e-01
 1.9544428e-01
 1.8606000e-01
 1.7644125e-01
 1.6663849e-01
 1.5684982e-01
 1.4706090e-01
 1.3726801e-01
 1.2756962e-01
 1.1806553e-01
 1.0870000e-01
 9.9602403e-02
 9.0727613e-02
 8.2108313e-02
 7.3857206e-02
 6.5947706e-02
 5.8319597e-02
 5.1164926e-02
 4.4420000e-02
 3.8092995e-02
 3.2140518e-02
 2.6623773e-02
 2.1652506e-02
 1.6972697e-02
 1.2599938e-02
 8.6252276e-03
 5.0400000e-03
 1.8185124e-03
-1.1821750e-05
-6.0640359e-06
-3.1346499e-06
 2.0834970e-07
 5.8284236e-08
-1.2962017e-08
-8.1264734e-21
 3.3348910e-10
-4.4436302e-11
-3.7492264e-12
 1.6023818e-12
-1.0650497e-13
-2.9793950e-14
 6.6259716e-15
 4.1541206e-27
-1.7047418e-16
 2.2715112e-17
 1.9165433e-18
-8.1911144e-19
 5.4443600e-20
 1.5230181e-20
-3.3870885e-21
 0.0000000e+00
 8.7143619e-23
-1.1611595e-23
-9.7970566e-25
 4.1871640e-25
-2.7830680e-26
-7.7854199e-27
 1.7314245e-27
 0.0000000e+00
-4.4550481e-29
 5.9540268e-30
 5.6647412e-31
-1.2019736e-30
 2.3257749e-30
 2.7400741e-29
-2.0561028e-28
 0.0000000e+00
 7.9916031e-27
-3.5934568e-26
-1.2845594e-25
 1.9326373e-24
-4.5219525e-24
-5.3594750e-23
 4.0222214e-22
 0.0000000e+00
-1.5633526e-20
 7.0296782e-20
 2.5129116e-19
-3.7807101e-18
 8.8460425e-18
 1.0484441e-16
-7.8684466e-16
 0.0000000e+00
 3.0582991e-14
-1.3751766e-13
-4.9158683e-13
 7.3959914e-12
-1.7305018e-11
-2.0510124e-10
 1.5392601e-09
 0.0000000e+00
-5.9827792e-08
 2.6901809e-07
 9.6166379e-07
-1.4468364e-05
 7.4048149e-05
-7.4970942e-04
-4.3351216e-04
 0.0000000e+00
 9.6339078e-06
-1.2836859e-06
-1.0830849e-07
 4.6289966e-08
-3.0767393e-09
-8.6069431e-10
 1.9141255e-10
 0.0000000e+00
-4.9246964e-12
 6.5619926e-13
 5.5365533e-14
-2.3662675e-14
 1.5727789e-15
 4.3997288e-16
-9.7846972e-17
-6.1344682e-29
 2.5174244e-18
-3.3543835e-19
-2.8301957e-20
 1.2095973e-20
-8.0397891e-22
-2.2490696e-22
 5.0017775e-23
 3.1358400e-35
-1.2868663e-24
 1.7147061e-25
 1.4467498e-26
-6.1832641e-27
 4.1098089e-28
 1.1496876e-28
-2.5568270e-29
 0.0000000e+00
 6.5782503e-31
-8.7652976e-32
-7.3955489e-33
 3.1607837e-33
-2.1008672e-34
-5.8770156e-35
 1.3070082e-35
 0.0000000e+00
-3.3626942e-37
 4.4806768e-38
 3.7804734e-39
-1.6155835e-39
 1.0702440e-40
 2.5674773e-41
 2.6096880e-41
 0.0000000e+00
-1.2738434e-39
 5.7286384e-39
 2.0478346e-38
-3.0809956e-37
 7.2088621e-37
 8.5440341e-36
-6.4121947e-35
 0.0000000e+00
 2.4922847e-33
-1.1206659e-32
-4.0060645e-32
 6.0271791e-31
-1.4102293e-30
-1.6714215e-29
 1.2543817e-28
 0.0000000e+00
-4.8755170e-27
 2.1922960e-26
 7.8368397e-26
-1.1790633e-24
 2.7587527e-24
 3.2697084e-23
-2.4538767e-22
 0.0000000e+00
 9.5377008e-21
-4.2886659e-20
-1.5330771e-19
 2.3065355e-18
-5.3967934e-18
-6.3963474e-17
 4.8003816e-16
 0.0000000e+00
-1.8658070e-14
 8.3896769e-14
 2.9990728e-13
-4.5121462e-12
 1.0557445e-11
 1.2512816e-10
-9.3907178e-10
 0.0000000e+00
 3.6499738e-08
-1.6412255e-07
-5.8669182e-07
 1.3826859e-05
 8.2237687e-05
-8.5312153e-06
 1.8972842e-06
 0.0000000e+00
-4.8813667e-08
 6.5042572e-09
 5.4878402e-10
-2.3454480e-10
 1.5589409e-11
 4.3610180e-12
-9.6986070e-13
-6.0804944e-25
 2.4952750e-14
-3.3248701e-15
-2.8052943e-16
 1.1989547e-16
-7.9690514e-18
-2.2292812e-18
 4.9577696e-19
 3.1082495e-31
-1.2755438e-20
 1.6996193e-21
 1.4340207e-22
-6.1288609e-23
 4.0736490e-24
 1.1395722e-24
-2.5343309e-25
 0.0000000e+00
 6.5203718e-27
-8.6881766e-28
-7.3304795e-29
 3.1329736e-29
-2.0823829e-30
-5.8253069e-31
 1.2955086e-31
 0.0000000e+00
-3.3331077e-33
 4.4412540e-34
 3.7472215e-35
-1.6015250e-35
 1.0644801e-36
 2.9778018e-37
-6.6224284e-38
 0.0000000e+00
 1.7038302e-39
-2.2702966e-40
-1.9155185e-41
 8.1867343e-42
-5.4414487e-43
-1.5222037e-43
 3.3852773e-44
 0.0000000e+00
-8.7097028e-46
 1.1605422e-46
 9.7931320e-48
-4.2046996e-48
 3.2442638e-49
 6.2619157e-49
-4.1328233e-48
 0.0000000e+00
 1.5996196e-46
-7.1927348e-46
-2.5711996e-45
 3.8684051e-44
-9.0512298e-44
-1.0727631e-42
 8.0509581e-42
 0.0000000e+00
-3.1292374e-40
 1.4070743e-39
 5.0298937e-39
-7.5675442e-38
 1.7706414e-37
 2.0985864e-36
-1.5749638e-35
 0.0000000e+00
 6.1215520e-34
-2.7525807e-33
-9.8396994e-33
 1.4803963e-31
-3.4638066e-31
-4.1053471e-30
 3.0810136e-29
 0.0000000e+00
-1.1975249e-27
 5.3847195e-27
 1.9248853e-26
-2.8960164e-25
 6.7760509e-25
 8.0310607e-24
-6.0272143e-23
 0.0000000e+00
 2.3426510e-21
-1.0533825e-20
-3.7655453e-20
 5.6653147e-19
-1.3255609e-18
-1.5710714e-17
 1.1790702e-16
 2.8731622e-27
-4.5827969e-15
 2.0606732e-14
 7.3663254e-14
-1.1082738e-12
 2.5931205e-12
 3.0733991e-11
-2.3065490e-10
-5.6206063e-21
 8.9650689e-09
-4.0311796e-08
-1.4410330e-07
 2.1680539e-06
-5.0727765e-06
 3.5925182e-04