Patient Number 07A70B2 Lead Number 1 Time Step .0005 Data Points 10777
0.0000000e+00
  2.8368454e-60
 -2.0631603e-60
 -1.8052652e-60
  9.9031693e-60
 -9.0263261e-60
 -3.5073724e-59
  1.0857381e-58
  0.0000000e+00
 -5.4183746e-58
  1.0055843e-57
  1.1817266e-57
 -7.0345512e-57
  6.5123138e-57
  2.5373983e-56
 -7.8596864e-56
  0.0000000e+00
  3.9228749e-55
 -7.2804098e-55
 -8.5556827e-55
  5.0930052e-54
 -4.7149062e-54
 -1.8370728e-53
  5.6904021e-53
  0.0000000e+00
 -2.8401560e-52
  5.2710066e-52
  6.1943024e-52
 -3.6873287e-51
  3.4135855e-51
  1.3300382e-50
 -4.1198432e-50
  0.0000000e+00
  2.0562690e-49
 -3.8162015e-49
 -4.4846664e-49
  2.6696209e-48
 -2.4714312e-48
 -9.6294582e-48
  2.9827608e-47
  0.0000000e+00
 -1.4887359e-46
  2.7629246e-46
  3.2468923e-46
 -1.9328018e-45
  1.7893128e-45
  6.9717145e-45
 -2.1595147e-44
  0.0000000e+00
  1.0778428e-43
 -2.0003536e-43
 -2.3507455e-43
  1.3993459e-42
 -1.2954600e-42
 -5.0475116e-42
  1.5634857e-41
  0.0000000e+00
 -7.8035666e-41
  1.4482533e-40
  1.7019365e-40
 -1.0131245e-39
  9.3791124e-40
  3.6543915e-39
 -1.1319615e-38
  0.0000000e+00
  5.6497715e-38
 -1.0485334e-37
 -1.2321997e-37
  7.3350072e-37
 -6.7904644e-37
 -2.6457744e-36
  8.1953854e-36
  0.0000000e+00
 -4.0904267e-35
  7.5913670e-35
  8.9211087e-35
 -5.3105351e-34
  4.9162869e-34
  1.9155370e-33
 -5.9334477e-33
  0.0000000e+00
  2.9614633e-32
 -5.4961392e-32
 -6.4588704e-32
  3.8448201e-31
 -3.5593849e-31
 -1.3868461e-30
  4.2958079e-30
  2.9042976e-43
 -2.1440953e-29
  3.9791972e-29
  4.6762132e-29
 -2.7836444e-28
  2.5769898e-28
  1.0040747e-27
 -3.1101590e-27
  0.0000000e+00
  1.5523221e-26
 -2.8809333e-26
 -3.3855719e-26
  2.0153547e-25
 -1.8657370e-25
 -7.2694868e-25
  2.2517508e-24
  0.0000000e+00
 -1.1238790e-23
  2.0857917e-23
  2.4511494e-23
 -1.4591140e-22
  1.3507910e-22
  5.2630984e-22
 -1.6302645e-21
  0.0000000e+00
  8.1368687e-21
 -1.5101103e-20
 -1.7746288e-20
  1.0563965e-19
 -9.7797084e-20
 -3.8104760e-19
  1.1803092e-18
  7.9832724e-32
 -5.8910817e-18
  1.0933178e-17
  1.2848288e-17
 -7.6482964e-17
  7.0804954e-17
  2.7587794e-16
 -8.5454226e-16
  0.0000000e+00
  4.2651350e-15
 -7.9156057e-15
 -9.3021427e-15
  5.5373560e-14
 -5.1262689e-14
 -1.9973524e-13
  6.1868742e-13
  0.0000000e+00
 -3.0879519e-12
  5.7308876e-12
  6.7347384e-12
 -4.0090381e-11
  3.7114116e-11
  1.4460804e-10
 -4.4792883e-10
  0.0000000e+00
  2.2356729e-09
 -4.1491547e-09
 -4.8759413e-09
  2.9025380e-08
 -2.6870569e-08
 -1.0469602e-07
  3.2429986e-07
  0.0000000e+00
 -1.6186241e-06
  3.0039823e-06
  3.5301748e-06
 -2.6014335e-05
 -3.6991058e-05
 -2.8887725e-05
 -1.4221452e-04
  1.0000000e-04
  1.3867253e-03
  3.2969960e-03
  5.4156427e-03
  7.6943498e-03
  1.0053350e-02
  1.2441692e-02
  1.4923928e-02
  1.7500000e-02
  2.0126923e-02
  2.2836902e-02
  2.5647868e-02
  2.8536780e-02
  3.1498310e-02
  3.4538923e-02
  3.7670448e-02
  4.0900000e-02
  4.4225991e-02
  4.7629116e-02
  5.1097966e-02
  5.4636817e-02
  5.8248093e-02
  6.1929695e-02
  6.5674137e-02
  6.9500000e-02
  7.3429762e-02
  7.7419758e-02
  8.1447600e-02
  8.5537738e-02
  8.9697374e-02
  9.3918725e-02
  9.8183070e-02
  1.0250000e-01
  1.0688799e-01
  1.1130992e-01
  1.1574818e-01
  1.2022600e-01
  1.2474752e-01
  1.2930694e-01
  1.3389752e-01
  1.3850000e-01
  1.4309613e-01
  1.4770917e-01
  1.5235007e-01
  1.5700092e-01
  1.6164892e-01
  1.6628737e-01
  1.7091424e-01
  1.7550000e-01
  1.8001203e-01
  1.8449091e-01
  1.8895296e-01
  1.9336200e-01
  1.9770235e-01
  2.0197160e-01
  2.0617218e-01
  2.1030000e-01
  2.1433831e-01
  2.1824297e-01
  2.2200222e-01
  2.2565177e-01
  2.2920197e-01
  2.3265009e-01
  2.3599136e-01
  2.3920000e-01
  2.4224551e-01
  2.4514250e-01
  2.4790418e-01
  2.5052675e-01
  2.5300325e-01
  2.5533000e-01
  2.5750971e-01
  2.5950000e-01
  2.6125328e-01
  2.6284121e-01
  2.6430520e-01
  2.6561220e-01
  2.6675606e-01
  2.6772865e-01
  2.6849180e-01
  2.6910000e-01
  2.6962059e-01
  2.6987791e-01
  2.6980239e-01
  2.6952897e-01
  2.6910237e-01
  2.6853564e-01
  2.6786665e-01
  2.6700000e-01
  2.6580785e-01
  2.6445066e-01
  2.6300867e-01
  2.6137367e-01
  2.5950875e-01
  2.5744275e-01
  2.5525731e-01
  2.5290000e-01
  2.5026118e-01
  2.4743656e-01
  2.4450167e-01
  2.4144058e-01
  2.3825278e-01
  2.3495815e-01
  2.3159374e-01
  2.2810000e-01
  2.2438941e-01
  2.2056602e-01
  2.1670091e-01
  2.1276365e-01
  2.0875253e-01
  2.0467343e-01
  2.0051569e-01
  1.9630000e-01
  1.9206060e-01
  1.8778250e-01
  1.8345204e-01
  1.7907354e-01
  1.7465276e-01
  1.7020235e-01
  1.6574875e-01
  1.6130000e-01
  1.5685016e-01
  1.5240008e-01
  1.4795017e-01
  1.4349886e-01
  1.3905111e-01
  1.3461262e-01
  1.3018587e-01
  1.2580000e-01
  1.2148735e-01
  1.1721025e-01
  1.1294840e-01
  1.0872487e-01
  1.0454858e-01
  1.0041931e-01
  9.6334200e-02
  9.2300000e-02
  8.8329383e-02
  8.4427954e-02
  8.0597593e-02
  7.6837690e-02
  7.3147472e-02
  6.9519145e-02
  6.5931745e-02
  6.2400000e-02
  5.8964158e-02
  5.5650096e-02
  5.2450256e-02
  4.9322212e-02
  4.6249864e-02
  4.3240047e-02
  4.0320493e-02
  3.7500000e-02
  3.4772210e-02
  3.2137299e-02
  2.9596720e-02
  2.7150812e-02
  2.4796103e-02
  2.2526218e-02
  2.0331850e-02
  1.8200000e-02
  1.6124820e-02
  1.4138404e-02
  1.2249169e-02
  1.0424669e-02
  8.6482249e-03
  6.9340890e-03
  5.3386401e-03
  3.8000000e-03
  2.2624128e-03
  1.0701151e-03
  3.9070919e-04
  4.4068422e-05
 -6.5237151e-05
 -2.2246710e-05
  1.1481959e-05
  0.0000000e+00
 -2.3004709e-06
  7.4267734e-07
  1.9061051e-07
 -2.0589600e-07
  3.4588240e-08
  2.9432667e-08
 -1.5859090e-08
  0.0000000e+00
  3.1774521e-09
 -1.0257994e-09
 -2.6327469e-10
  2.8438729e-10
 -4.7773903e-11
 -4.0652933e-11
  2.1904862e-11
  1.1858461e-24
 -4.3887544e-12
  1.4168527e-12
  3.6363977e-13
 -3.9280087e-13
  6.5986180e-14
  5.6150567e-14
 -3.0255391e-14
 -1.7163998e-27
  6.0618270e-15
 -1.9569826e-15
 -5.0226583e-16
  5.4254367e-16
 -9.1141307e-17
 -7.7556180e-17
  4.1789294e-17
  0.0000000e+00
 -8.3727052e-18
  2.7030198e-18
  6.9373866e-19
 -7.4937114e-19
  1.2588602e-19
  1.0712200e-19
 -5.7720130e-20
  0.0000000e+00
  1.1564532e-20
 -3.7334599e-21
 -9.5820440e-22
  1.0350450e-21
 -1.7387605e-22
 -1.4795885e-22
  7.9724089e-23
  0.0000000e+00
 -1.5973141e-23
  5.1567224e-24
  1.3234893e-24
 -1.4296229e-24
  2.4016075e-25
  2.0436344e-25
 -1.1011635e-25
  0.0000000e+00
  2.2062392e-26
 -7.1225583e-27
 -1.8280274e-27
  1.9746212e-27
 -3.3171453e-28
 -2.8227105e-28
  1.5209646e-28
  0.0000000e+00
 -3.0481756e-29
  9.8541044e-30
  2.5440572e-30
 -2.8413944e-30
  5.6371794e-31
  8.0112479e-31
 -1.4839311e-30
  0.0000000e+00
  6.4000718e-30
 -1.1813280e-29
 -1.3870072e-29
  8.2548422e-29
 -7.6417264e-29
 -2.9774330e-28
  9.2226967e-28
  0.0000000e+00
 -4.6031702e-27
  8.5429605e-27
  1.0039388e-26
 -5.9762216e-26
  5.5325536e-26
  2.1556535e-25
 -6.6772176e-25
 -1.8206057e-37
  3.3326888e-24
 -6.1850916e-24
 -7.2685031e-24
  4.3267762e-23
 -4.0055611e-23
 -1.5606902e-22
  4.8342963e-22
  0.0000000e+00
 -2.4128621e-21
  4.4779978e-21
  5.2623862e-21
 -3.1325800e-20
  2.9000207e-20
  1.1299375e-19
 -3.5000239e-19
  0.0000000e+00
  1.7469088e-18
 -3.2420642e-18
 -3.8099603e-18
  2.2679836e-17
 -2.0996110e-17
 -8.1807320e-17
  2.5340124e-16
  0.0000000e+00
 -1.2647596e-15
  2.3472500e-15
  2.7584060e-15
 -1.6420170e-14
  1.5201155e-14
  5.9228387e-14
 -1.8346215e-13
  0.0000000e+00
  9.1568420e-13
 -1.6994058e-12
 -1.9970822e-12
  1.1888180e-11
 -1.1005615e-11
 -4.2881270e-11
  1.3282634e-10
  0.0000000e+00
 -6.6295409e-10
  1.2303674e-09
  1.4458847e-09
 -8.6070261e-09
  7.9680501e-09
  3.1045980e-08
 -9.6166089e-08
  0.0000000e+00
  4.7997785e-07
 -8.9078432e-07
 -1.0468185e-06
  6.2314750e-06
 -5.7297947e-06
 -1.4039747e-05
  1.1845224e-04
  1.0000000e-04
 -5.2640955e-04
 -1.5106984e-03
 -2.5684329e-03
 -3.6065793e-03
 -4.5615975e-03
 -5.3555668e-03
 -5.8854981e-03
 -6.4000000e-03
 -7.2420761e-03
 -8.0450419e-03
 -8.5995547e-03
 -9.1128243e-03
 -9.6482156e-03
 -1.0204992e-02
 -1.0806885e-02
 -1.1400000e-02
 -1.1906956e-02
 -1.2404878e-02
 -1.2948086e-02
 -1.3513593e-02
 -1.4099117e-02
 -1.4701335e-02
 -1.5292451e-02
 -1.5900000e-02
 -1.6580183e-02
 -1.7322839e-02
 -1.8101968e-02
 -1.8895718e-02
 -1.9702950e-02
 -2.0543843e-02
 -2.1464614e-02
 -2.2500000e-02
 -2.3665150e-02
 -2.4942986e-02
 -2.6301969e-02
 -2.7706520e-02
 -2.9153283e-02
 -3.0657252e-02
 -3.2245309e-02
 -3.4000000e-02
 -3.6000604e-02
 -3.8148779e-02
 -4.0393588e-02
 -4.2798872e-02
 -4.5395028e-02
 -4.8180139e-02
 -5.1127719e-02
 -5.4300000e-02
 -5.7782470e-02
 -6.1471600e-02
 -6.5296135e-02
 -6.9285327e-02
 -7.3445303e-02
 -7.7767797e-02
 -8.2244651e-02
 -8.6900000e-02
 -9.1757921e-02
 -9.6743753e-02
 -1.0180042e-01
 -1.0692405e-01
 -1.1209757e-01
 -1.1731419e-01
 -1.2260091e-01
 -1.2790000e-01
 -1.3311698e-01
 -1.3828474e-01
 -1.4340738e-01
 -1.4841302e-01
 -1.5325318e-01
 -1.5792425e-01
 -1.6248146e-01
 -1.6680000e-01
 -1.7067357e-01
 -1.7414844e-01
 -1.7726433e-01
 -1.7996910e-01
 -1.8220806e-01
 -1.8395369e-01
 -1.8522021e-01
 -1.8580000e-01
 -1.8541172e-01
 -1.8417884e-01
 -1.8222032e-01
 -1.7951363e-01
 -1.7601447e-01
 -1.7170256e-01
 -1.6660096e-01
 -1.6040000e-01
 -1.5271265e-01
 -1.4388104e-01
 -1.3417248e-01
 -1.2352026e-01
 -1.1186736e-01
 -9.9183316e-02
 -8.5442968e-02
 -7.0300000e-02
 -5.3372259e-02
 -3.5119263e-02
 -1.5875861e-02
  4.4540440e-03
  2.5927375e-02
  4.8561598e-02
  7.2375566e-02
  9.7700000e-02
  1.2489942e-01
  1.5351874e-01
  1.8318273e-01
  2.1388240e-01
  2.4557461e-01
  2.7822382e-01
  3.1187250e-01
  3.4660000e-01
  3.8241403e-01
  4.1895768e-01
  4.5591293e-01
  4.9313379e-01
  5.3049949e-01
  5.6798063e-01
  6.0571918e-01
  6.4360000e-01
  6.8133120e-01
  7.1877795e-01
  7.5578952e-01
  7.9214709e-01
  8.2767062e-01
  8.6230984e-01
  8.9622121e-01
  9.2900000e-01
  9.5999552e-01
  9.8938376e-01
  1.0172274e+00
  1.0431834e+00
  1.0670048e+00
  1.0886574e+00
  1.1083928e+00
  1.1255000e+00
  1.1389343e+00
  1.1493922e+00
  1.1573833e+00
  1.1626294e+00
  1.1650346e+00
  1.1647143e+00
  1.1619654e+00
  1.1563000e+00
  1.1470128e+00
  1.1350087e+00
  1.1208730e+00
  1.1042849e+00
  1.0851825e+00
  1.0637184e+00
  1.0401686e+00
  1.0143000e+00
  9.8575886e-01
  9.5531637e-01
  9.2344801e-01
  8.8991185e-01
  8.5471462e-01
  8.1806576e-01
  7.8030296e-01
  7.4140000e-01
  7.0124549e-01
  6.6055147e-01
  6.1974995e-01
  5.7867629e-01
  5.3742668e-01
  4.9608930e-01
  4.5449564e-01
  4.1340000e-01
  3.7383422e-01
  3.3500162e-01
  2.9634204e-01
  2.5816617e-01
  2.2053543e-01
  1.8391650e-01
  1.4979139e-01
  1.1680000e-01
  8.2426055e-02
  4.8728230e-02
  1.8954559e-02
 -3.9153185e-03
 -1.9188781e-02
 -2.9131723e-02
 -3.9983154e-02
 -5.3300000e-02
 -6.6936904e-02
 -8.0056661e-02
 -9.2348745e-02
 -1.0373555e-01
 -1.1419913e-01
 -1.2379972e-01
 -1.3272825e-01
 -1.4120000e-01
 -1.4944641e-01
 -1.5773878e-01
 -1.6619635e-01
 -1.7472767e-01
 -1.8323491e-01
 -1.9159652e-01
 -1.9962777e-01
 -2.0710000e-01
 -2.1385639e-01
 -2.2013259e-01
 -2.2610443e-01
 -2.3175115e-01
 -2.3711321e-01
 -2.4227183e-01
 -2.4732064e-01
 -2.5230000e-01
 -2.5717432e-01
 -2.6177658e-01
 -2.6601299e-01
 -2.6992248e-01
 -2.7351171e-01
 -2.7678724e-01
 -2.7979189e-01
 -2.8250000e-01
 -2.8487060e-01
 -2.8702599e-01
 -2.8905167e-01
 -2.9093188e-01
 -2.9264994e-01
 -2.9418507e-01
 -2.9549826e-01
 -2.9650000e-01
 -2.9712254e-01
 -2.9752998e-01
 -2.9780782e-01
 -2.9787327e-01
 -2.9770997e-01
 -2.9734808e-01
 -2.9684041e-01
 -2.9620000e-01
 -2.9540455e-01
 -2.9442358e-01
 -2.9325369e-01
 -2.9192642e-01
 -2.9045409e-01
 -2.8885016e-01
 -2.8714698e-01
 -2.8530000e-01
 -2.8324203e-01
 -2.8105902e-01
 -2.7880336e-01
 -2.7643773e-01
 -2.7395428e-01
 -2.7136324e-01
 -2.6867851e-01
 -2.6590000e-01
 -2.6302349e-01
 -2.6007222e-01
 -2.5705367e-01
 -2.5394834e-01
 -2.5075448e-01
 -2.4747590e-01
 -2.4411169e-01
 -2.4070000e-01
 -2.3727683e-01
 -2.3374980e-01
 -2.3009637e-01
 -2.2641732e-01
 -2.2274649e-01
 -2.1908337e-01
 -2.1542271e-01
 -2.1170000e-01
 -2.0785418e-01
 -2.0401583e-01
 -2.0025099e-01
 -1.9648666e-01
 -1.9270153e-01
 -1.8887700e-01
 -1.8494929e-01
 -1.8100000e-01
 -1.7717594e-01
 -1.7341812e-01
 -1.6965507e-01
 -1.6586871e-01
 -1.6205525e-01
 -1.5823548e-01
 -1.5447202e-01
 -1.5080000e-01
 -1.4720487e-01
 -1.4357823e-01
 -1.3989413e-01
 -1.3625453e-01
 -1.3269439e-01
 -1.2922070e-01
 -1.2584810e-01
 -1.2250000e-01
 -1.1908596e-01
 -1.1574200e-01
 -1.1254700e-01
 -1.0943807e-01
 -1.0639765e-01
 -1.0340367e-01
 -1.0037947e-01
 -9.7400000e-02
 -9.4609369e-02
 -9.1938642e-02
 -8.9305037e-02
 -8.6680345e-02
 -8.4054703e-02
 -8.1445375e-02
 -7.8913657e-02
 -7.6500000e-02
 -7.4196575e-02
 -7.1888018e-02
 -6.9543460e-02
 -6.7266879e-02
 -6.5093625e-02
 -6.3021809e-02
 -6.1041757e-02
 -5.9100000e-02
 -5.7140096e-02
 -5.5224465e-02
 -5.3396664e-02
 -5.1638899e-02
 -4.9946962e-02
 -4.8292790e-02
 -4.6588137e-02
 -4.4900000e-02
 -4.3368903e-02
 -4.1926378e-02
 -4.0502762e-02
 -3.9095573e-02
 -3.7702275e-02
 -3.6332410e-02
 -3.5025435e-02
 -3.3800000e-02
 -3.2643957e-02
 -3.1499964e-02
 -3.0347781e-02
 -2.9226173e-02
 -2.8147733e-02
 -2.7116262e-02
 -2.6143461e-02
 -2.5200000e-02
 -2.4244275e-02
 -2.3314959e-02
 -2.2446243e-02
 -2.1639988e-02
 -2.0896153e-02
 -2.0189772e-02
 -1.9447390e-02
 -1.8700000e-02
 -1.8033757e-02
 -1.7413460e-02
 -1.6801503e-02
 -1.6197332e-02
 -1.5601494e-02
 -1.5013422e-02
 -1.4433879e-02
 -1.3900000e-02
 -1.3446773e-02
 -1.2990916e-02
 -1.2497497e-02
 -1.2026985e-02
 -1.1597011e-02
 -1.1196952e-02
 -1.0803295e-02
 -1.0400000e-02
 -9.9897551e-03
 -9.6204908e-03
 -9.3021904e-03
 -8.9853356e-03
 -8.6518957e-03
 -8.3026256e-03
 -7.9452705e-03
 -7.6000000e-03
 -7.2897031e-03
 -7.0124710e-03
 -6.7522836e-03
 -6.4850361e-03
 -6.2020909e-03
 -5.9033311e-03
 -5.5931249e-03
 -5.3000000e-03
 -5.0503721e-03
 -4.7907981e-03
 -4.4986277e-03
 -4.2135289e-03
 -3.9485673e-03
 -3.6987811e-03
 -3.4506560e-03
 -3.2000000e-03
 -2.9498730e-03
 -2.7000340e-03
 -2.4500009e-03
 -2.2000478e-03
 -1.9499468e-03
 -1.6997868e-03
 -1.4506646e-03
 -1.2000000e-03
 -9.4667867e-04
 -7.0710180e-04
 -4.9743943e-04
 -3.2687731e-04
 -1.9730413e-04
 -1.0648328e-04
 -4.8659853e-05
  0.0000000e+00
  5.9289679e-05
  7.9859970e-05
  4.7946799e-05
  1.4222224e-05
 -1.5492311e-06
 -1.3183094e-06
  7.1033955e-07
  0.0000000e+00
 -1.4232027e-07
  4.5946262e-08
  1.1792255e-08
 -1.2737903e-08
  2.1398261e-09
  1.8208729e-09
 -9.8113385e-10
  0.0000000e+00
  1.9657533e-10
 -6.3461808e-11
 -1.6287676e-11
  1.7593822e-11
 -2.9555665e-12
 -2.5150226e-12
  1.3551598e-12
  0.0000000e+00
 -2.7151341e-13
  8.7654599e-14
  2.2496833e-14
 -2.4300905e-14
  4.0822819e-15
  3.4737947e-15
 -1.8717713e-15
  0.0000000e+00
  3.7501924e-16
 -1.2107012e-16
 -3.1073033e-17
  3.3564850e-17
 -5.6385217e-18
 -4.7980682e-18
  2.5853244e-18
  0.0000000e+00
 -5.1798336e-19
  1.6722424e-19
  4.2918635e-20
 -4.6360378e-20
  7.7880283e-21
  6.6271786e-21
 -3.5708969e-21
  0.0000000e+00
  7.1544799e-22
 -2.3097315e-22
 -5.9279996e-23
  6.4033794e-23
 -1.0756966e-23
 -9.1535791e-24
  4.9321874e-24
  0.0000000e+00
 -9.8818972e-25
  3.1902429e-25
  8.1878604e-26
 -8.8444635e-26
  1.4857716e-26
  1.2643089e-26
 -6.8124265e-27
  0.0000000e+00
  1.3649055e-27
 -4.4064213e-28
 -1.1309221e-28
  1.2216133e-28
 -2.0521746e-29
 -1.7462864e-29
  9.4094469e-30
  0.0000000e+00
 -1.8852322e-30
  6.0862289e-31
  1.5620501e-31
 -1.6873144e-31
  2.8345007e-32
  2.4120023e-32
 -1.2996498e-32
 -1.4259613e-45
  2.6039169e-33
 -8.4064095e-34
 -2.1575319e-34
  2.3305492e-34
 -3.9150637e-35
 -3.3315013e-35
  1.7950999e-35
  1.9618179e-48
 -3.5965771e-36
  1.1611085e-36
  2.9800221e-37
 -3.2189968e-37
  5.4075568e-38
  4.6015299e-38
 -2.4794245e-38
 -2.6855940e-51
  4.9676575e-39
 -1.6037441e-39
 -4.1160604e-40
  4.4461367e-40
 -7.4690154e-41
 -6.3557164e-41
  3.4246260e-41
  3.7418706e-54
 -6.8614184e-42
  2.2151204e-42
  5.6851772e-43
 -6.1410844e-43
  1.0316339e-43
  8.7786306e-44
 -4.7301554e-44
  0.0000000e+00
  9.4771154e-45
 -3.0595644e-45
 -7.8524699e-46
  8.4821785e-46
 -1.4249129e-46
 -1.2125259e-46
  6.5335467e-47
  0.0000000e+00
 -1.3098470e-47
  4.2417123e-48
  1.1031492e-48
 -1.2820087e-48
  2.9904783e-49
  5.6582036e-49
 -1.3241283e-48
  0.0000000e+00
  6.1765812e-48
 -1.1435315e-47
 -1.3433020e-47
  7.9956445e-47
 -7.4019342e-47
 -2.8840136e-46
  8.9333343e-46
  0.0000000e+00
 -4.4587463e-45
  8.2749263e-45
  9.7244036e-45
 -5.7887184e-44
  5.3589704e-44
  2.0880202e-43
 -6.4677208e-43
  0.0000000e+00
  3.2281262e-42
 -5.9910352e-42
 -7.0404548e-42
  4.1910242e-41
 -3.8798872e-41
 -1.5117237e-40
  4.6826209e-40
  0.0000000e+00
 -2.3371589e-39
  4.3375012e-39
  5.0972795e-39
 -3.0342957e-38
  2.8090330e-38
  1.0944859e-37
 -3.3902111e-37
  0.0000000e+00
  1.6920998e-36
 -3.1403449e-36
 -3.6904233e-36
  2.1968259e-35
 -2.0337360e-35
 -7.9240626e-35
  2.4545081e-34
  0.0000000e+00
 -1.2250779e-33
  2.2736054e-33
  2.6718614e-33
 -1.5904989e-32
  1.4724220e-32
  5.7370104e-32
 -1.7770605e-31
  0.0000000e+00
  8.8695472e-31
 -1.6460871e-30
 -1.9344240e-30
  1.1515190e-29
 -1.0660315e-29
 -4.1535876e-29
  1.2865893e-28
  0.0000000e+00
 -6.4215400e-28
  1.1917648e-27
  1.4005203e-27
 -8.3369818e-27
  7.7180535e-27
  3.0071917e-26
 -9.3148891e-26
  0.0000000e+00
  4.6491861e-25
 -8.6283608e-25
 -1.0139747e-24
  6.0359633e-24
 -5.5878601e-24
 -2.1772026e-23
  6.7439668e-23
  0.0000000e+00
 -3.3660043e-22
  6.2469213e-22
  7.3411632e-22
 -4.3700291e-21
  4.0456030e-21
  1.5762917e-20
 -4.8826227e-20
  0.0000000e+00
  2.4369825e-19
 -4.5227624e-19
 -5.3149920e-19
  3.1638950e-18
 -2.9290110e-18
 -1.1412330e-17
  3.5350121e-17
  0.0000000e+00
 -1.7643719e-16
  3.2744737e-16
  3.8480469e-16
 -2.2906556e-15
  2.1205999e-15
  8.2625112e-15
 -2.5593439e-14
  0.0000000e+00
  1.2774028e-13
 -2.3707144e-13
 -2.7859806e-13
  1.6584315e-12
 -1.5353114e-12
 -5.9820467e-12
  1.8529614e-11
  0.0000000e+00
 -9.2483789e-11
  1.7163940e-10
  2.0170461e-10
 -1.2007021e-09
  1.1115633e-09
  4.3309936e-09
 -1.3415415e-08
  0.0000000e+00
  6.6958136e-08
 -1.2426669e-07
 -1.4603386e-07
  8.6930668e-07
 -8.0477032e-07
 -3.1356334e-06
  9.7127420e-06
  0.0000000e+00
 -4.8477598e-05
  1.0028141e-04
  5.4787675e-04
  1.1506232e-03
  1.8452698e-03
  2.5892567e-03
  3.2968945e-03
  4.0000000e-03
  4.7883388e-03
  5.6038833e-03
  6.4011286e-03
  7.1979586e-03
  8.0011823e-03
  8.8206470e-03
  9.6863516e-03
  1.0600000e-02
  1.1542759e-02
  1.2509458e-02
  1.3499256e-02
  1.4512356e-02
  1.5549338e-02
  1.6609831e-02
  1.7691563e-02
  1.8800000e-02
  1.9942362e-02
  2.1108552e-02
  2.2297874e-02
  2.3526017e-02
  2.4797811e-02
  2.6108261e-02
  2.7443292e-02
  2.8800000e-02
  3.0186890e-02
  3.1619442e-02
  3.3099727e-02
  3.4611675e-02
  3.6149652e-02
  3.7710838e-02
  3.9288595e-02
  4.0900000e-02
  4.2576549e-02
  4.4331987e-02
  4.6152096e-02
  4.7996208e-02
  4.9852247e-02
  5.1724421e-02
  5.3624930e-02
  5.5600000e-02
  5.7688557e-02
  5.9800742e-02
  6.1896908e-02
  6.4038803e-02
  6.6246784e-02
  6.8508435e-02
  7.0789770e-02
  7.3100000e-02
  7.5477011e-02
  7.7930725e-02
  8.0450534e-02
  8.3010611e-02
  8.5600125e-02
  8.8228857e-02
  9.0932992e-02
  9.3700000e-02
  9.6490186e-02
  9.9316409e-02
  1.0219676e-01
  1.0513853e-01
  1.0814731e-01
  1.1121067e-01
  1.1428271e-01
  1.1740000e-01
  1.2063191e-01
  1.2391195e-01
  1.2719878e-01
  1.3052484e-01
  1.3389823e-01
  1.3731770e-01
  1.4078937e-01
  1.4430000e-01
  1.4783385e-01
  1.5142748e-01
  1.5509854e-01
  1.5882497e-01
  1.6259841e-01
  1.6641859e-01
  1.7028648e-01
  1.7420000e-01
  1.7814845e-01
  1.8209756e-01
  1.8604611e-01
  1.9003958e-01
  1.9409677e-01
  1.9821713e-01
  2.0238749e-01
  2.0660000e-01
  2.1084696e-01
  2.1510010e-01
  2.1934904e-01
  2.2361215e-01
  2.2789977e-01
  2.3221995e-01
  2.3658507e-01
  2.4100000e-01
  2.4545262e-01
  2.4988907e-01
  2.5429707e-01
  2.5872719e-01
  2.6319718e-01
  2.6768961e-01
  2.7215088e-01
  2.7660000e-01
  2.8109378e-01
  2.8560192e-01
  2.9010039e-01
  2.9460021e-01
  2.9909934e-01
  3.0358884e-01
  3.0805980e-01
  3.1250000e-01
  3.1690359e-01
  3.2129973e-01
  3.2570091e-01
  3.3008787e-01
  3.3445028e-01
  3.3878856e-01
  3.4311349e-01
  3.4740000e-01
  3.5161278e-01
  3.5578970e-01
  3.5995159e-01
  3.6407514e-01
  3.6815142e-01
  3.7218069e-01
  3.7616579e-01
  3.8010000e-01
  3.8397068e-01
  3.8777194e-01
  3.9150228e-01
  3.9516309e-01
  3.9875185e-01
  4.0228649e-01
  4.0582578e-01
  4.0930000e-01
  4.1258698e-01
  4.1576669e-01
  4.1890095e-01
  4.2196440e-01
  4.2495162e-01
  4.2786149e-01
  4.3067778e-01
  4.3340000e-01
  4.3603336e-01
  4.3855162e-01
  4.4095120e-01
  4.4326487e-01
  4.4550078e-01
  4.4765794e-01
  4.4973898e-01
  4.5170000e-01
  4.5348821e-01
  4.5515916e-01
  4.5675218e-01
  4.5825158e-01
  4.5965230e-01
  4.6095147e-01
  4.6213698e-01
  4.6320000e-01
  4.6413696e-01
  4.6495151e-01
  4.6565234e-01
  4.6625635e-01
  4.6680884e-01
  4.6726468e-01
  4.6739308e-01
  4.6760000e-01
  4.6857204e-01
  4.7007802e-01
  4.7177453e-01
  4.7348043e-01
  4.7506047e-01
  4.7648160e-01
  4.7788752e-01
  4.7920000e-01
  4.8023977e-01
  4.8117802e-01
  4.8210636e-01
  4.8290971e-01
  4.8355793e-01
  4.8406868e-01
  4.8446796e-01
  4.8480000e-01
  4.8506980e-01
  4.8507823e-01
  4.8479146e-01
  4.8443619e-01
  4.8409223e-01
  4.8371480e-01
  4.8315610e-01
  4.8240000e-01
  4.8152807e-01
  4.8056341e-01
  4.7950435e-01
  4.7833752e-01
  4.7705356e-01
  4.7566806e-01
  4.7423900e-01
  4.7270000e-01
  4.7093980e-01
  4.6906680e-01
  4.6715211e-01
  4.6515109e-01
  4.6305295e-01
  4.6085412e-01
  4.5852870e-01
  4.5610000e-01
  4.5361747e-01
  4.5107396e-01
  4.4845390e-01
  4.4574945e-01
  4.4295303e-01
  4.4006998e-01
  4.3713024e-01
  4.3410000e-01
  4.3092548e-01
  4.2767853e-01
  4.2440194e-01
  4.2106287e-01
  4.1765238e-01
  4.1417225e-01
  4.1061974e-01
  4.0700000e-01
  4.0332042e-01
  3.9957116e-01
  3.9575113e-01
  3.9187525e-01
  3.8795168e-01
  3.8398196e-01
  3.7996170e-01
  3.7590000e-01
  3.7181081e-01
  3.6768338e-01
  3.6350331e-01
  3.5926065e-01
  3.5495353e-01
  3.5059264e-01
  3.4620700e-01
  3.4180000e-01
  3.3735856e-01
  3.3289014e-01
  3.2840066e-01
  3.2388760e-01
  3.1935076e-01
  3.1478232e-01
  3.1015775e-01
  3.0550000e-01
  3.0085289e-01
  2.9619104e-01
  2.9149986e-01
  2.8679992e-01
  2.8210016e-01
  2.7739240e-01
  2.7264851e-01
  2.6790000e-01
  2.6319930e-01
  2.5849114e-01
  2.5374870e-01
  2.4901351e-01
  2.4429852e-01
  2.3959853e-01
  2.3490147e-01
  2.3020000e-01
  2.2549579e-01
  2.2080854e-01
  2.1614909e-01
  2.1151208e-01
  2.0689980e-01
  2.0231177e-01
  1.9773544e-01
  1.9320000e-01
  1.8874254e-01
  1.8429948e-01
  1.7984661e-01
  1.7543897e-01
  1.7109690e-01
  1.6680908e-01
  1.6253765e-01
  1.5830000e-01
  1.5413770e-01
  1.5000900e-01
  1.4589681e-01
  1.4183951e-01
  1.3784619e-01
  1.3391440e-01
  1.3004624e-01
  1.2620000e-01
  1.2233343e-01
  1.1853677e-01
  1.1485002e-01
  1.1121083e-01
  1.0760037e-01
  1.0401357e-01
  1.0043016e-01
  9.6900000e-02
  9.3488143e-02
  9.0099863e-02
  8.6695556e-02
  8.3352283e-02
  8.0095423e-02
  7.6907513e-02
  7.3739493e-02
  7.0600000e-02
  6.7531555e-02
  6.4521151e-02
  6.1550150e-02
  5.8611314e-02
  5.5699662e-02
  5.2818920e-02
  4.9988700e-02
  4.7200000e-02
  4.4434065e-02
  4.1727274e-02
  3.9098343e-02
  3.6526113e-02
  3.3997314e-02
  3.1506053e-02
  2.9050330e-02
  2.6600000e-02
  2.4132034e-02
  2.1738138e-02
  1.9451396e-02
  1.7197957e-02
  1.4951113e-02
  1.2728587e-02
  1.0586775e-02
  8.5000000e-03
  6.3988073e-03
  4.3112095e-03
  2.4094744e-03
  9.9327966e-04
  1.5986817e-04
 -1.4569573e-04
 -1.0995807e-04
  0.0000000e+00
 -3.9249310e-05
 -8.6329744e-05
 -4.9607287e-05
 -1.2428577e-05
  1.2479184e-06
  1.0619091e-06
 -5.7218436e-07
  0.0000000e+00
  1.1464015e-07
 -3.7010092e-08
 -9.4987584e-09
  1.0260485e-08
 -1.7236475e-09
 -1.4667281e-09
  7.9031139e-10
  0.0000000e+00
 -1.5834305e-10
  5.1119009e-11
  1.3119857e-11
 -1.4171968e-11
  2.3807331e-12
  2.0258714e-12
 -1.0915924e-12
  0.0000000e+00
  2.1870629e-13
 -7.0606501e-14
 -1.8121384e-14
  1.9574579e-14
 -3.2883117e-15
 -2.7981703e-15
  1.5077272e-15
  0.0000000e+00
 -3.0208108e-16
  9.7522977e-17
  2.5029584e-17
 -2.7036763e-17
  4.5418757e-18
  3.8648834e-18
 -2.0825001e-18
  0.0000000e+00
  4.1723986e-19
 -1.3470050e-19
 -3.4571314e-20
  3.7343666e-20
 -6.2733209e-21
 -5.3382470e-21
  2.8763868e-21
  0.0000000e+00
 -5.7629925e-22
  1.8605077e-22
  4.7750525e-23
 -5.1579748e-23
  8.6648244e-24
  7.3732833e-24
 -3.9729176e-24
  0.0000000e+00
  7.9599496e-25
 -2.5697669e-25
 -6.5953890e-26
  7.1242882e-26
 -1.1968012e-26
 -1.0184112e-26
  5.4874657e-27
  0.0000000e+00
 -1.0994426e-27
  3.5494086e-28
  9.1096707e-29
 -9.8401958e-29
  1.6530435e-29
  1.4066480e-29
 -7.5793869e-30
  0.0000000e+00
  1.5185701e-30
 -4.9025075e-31
 -1.2582442e-31
  1.3591457e-31
 -2.2832137e-32
 -1.9428878e-32
  1.0468786e-32
  0.0000000e+00
 -2.0974765e-33
  6.7714321e-34
  1.7379097e-34
 -1.8772766e-34
  3.1536160e-35
  2.6835517e-35
 -1.4459677e-35
  0.0000000e+00
  2.8970725e-36
 -9.3528246e-37
 -2.4004323e-37
  2.5929284e-37
 -4.3558316e-38
 -3.7065702e-38
  1.9971968e-38
  0.0000000e+00
 -4.0014890e-39
  1.2918291e-39
  3.3155206e-40
 -3.5813997e-40
  6.0163534e-41
  5.1195819e-41
 -2.7585644e-41
  0.0000000e+00
  5.5269291e-42
 -1.7842977e-42
 -4.5794570e-43
  4.9466941e-43
 -8.3098963e-44
 -7.0712592e-44
  3.8101791e-44
  0.0000000e+00
 -7.6338945e-45
  2.4645043e-45
  6.3252290e-46
 -6.8324634e-46
  1.1477779e-46
  9.7669513e-47
 -5.2626884e-47
  0.0000000e+00
  1.0544073e-47
 -3.4040179e-48
 -8.7365207e-49
  9.4371222e-49
 -1.5853316e-49
 -1.3490290e-49
  7.2689204e-50
  0.0000000e+00
 -1.4563665e-50
  4.7016912e-51
  1.2067041e-51
 -1.3034724e-51
  2.1896888e-52
  1.8633033e-52
 -1.0039965e-52
  0.0000000e+00
  2.0115598e-53
 -6.4940610e-54
 -1.6667215e-54
  1.8003797e-54
 -3.0244378e-55
 -2.5736282e-55
  1.3867381e-55
  0.0000000e+00
 -2.7784028e-56
  8.9697146e-57
  2.3021059e-57
 -2.4867170e-57
  4.1774082e-58
  3.5547419e-58
 -1.9153877e-58
  0.0000000e+00
  3.8375802e-59
 -1.2389132e-59
 -3.1797104e-60
  3.4346986e-60
 -5.7699118e-61
 -4.9098738e-61
  2.6455682e-61
  0.0000000e+00
 -5.3005352e-62
  1.7112094e-62
  4.3918735e-63
 -4.7440678e-63
  7.9695067e-64
  6.7816066e-64
 -3.6541067e-64
  0.0000000e+00
  7.3211952e-65
 -2.3635534e-65
 -6.0661352e-66
  6.5525924e-66
 -1.1007627e-66
 -9.3668779e-67
  5.0471184e-67
  0.0000000e+00
 -1.0112167e-67
  3.2645827e-68
  8.3786558e-69
 -9.0505592e-69
  1.5203934e-69
  1.2937701e-69
 -6.9711712e-70
  0.0000000e+00
  1.3967109e-70
 -4.5091007e-71
 -1.1572751e-71
  1.2500796e-71
 -2.0999948e-72
 -1.7869787e-72
  9.6287079e-73
  0.0000000e+00
 -1.9291623e-73
  6.2280516e-74
  1.5984493e-74
 -1.7266326e-74
  2.9005509e-75
  2.4682074e-75
 -1.3299346e-75
 -2.9115873e-88
  2.6645940e-76
 -8.6022976e-77
 -2.2078072e-77
  2.3848562e-77
 -4.0062934e-78
 -3.4091327e-78
  1.8369297e-78
  4.0215294e-91
 -3.6803854e-79
  1.1881649e-79
  3.0494632e-80
 -3.2940066e-80
  5.5335650e-81
  4.7087558e-81
 -2.5372006e-81
 -5.5534120e-94
  5.0834150e-82
 -1.6411149e-82
 -4.2119737e-83
  4.5497411e-83
 -7.6430560e-84
 -6.5038029e-84
  3.5043781e-84
  7.6704585e-97
 -7.0188468e-85
  2.2621760e-85
  5.7640477e-86
 -5.9650765e-86
  7.6025469e-87
 -2.5272281e-87
  3.0813580e-86
  3.7863058e-98
 -1.7698389e-85
  3.2994873e-85
  3.8803177e-85
 -2.3102573e-84
  2.1388121e-84
  8.3335160e-84
 -2.5813410e-83
 -2.8164965e-95
  1.2883822e-82
 -2.3910910e-82
 -2.8099264e-82
  1.6726859e-81
 -1.5485076e-81
 -6.0334631e-81
  1.8688878e-80
  0.0000000e+00
 -9.3278698e-80
  1.7311466e-79
  2.0343829e-79
 -1.2110223e-78
  1.1211173e-78
  4.3682189e-78
 -1.3530722e-77
  0.0000000e+00
  6.7533648e-77
 -1.2533477e-76
 -1.4728904e-76
  8.7677847e-76
 -8.1168741e-76
 -3.1625845e-75
  9.7962241e-75
  0.0000000e+00
 -4.8894268e-74
  9.0742203e-74
  1.0663706e-73
 -6.3478640e-73
  5.8766056e-73
  2.2897068e-72
 -7.0924527e-72
  0.0000000e+00
  3.5399383e-71
 -6.5697230e-71
 -7.7205084e-71
  4.5958448e-70
 -4.2546544e-70
 -1.6577446e-69
  5.1349260e-69
  0.0000000e+00
 -2.5629104e-68
  4.7564704e-68
  5.5896374e-68
 -3.3273853e-67
  3.0803639e-67
  1.2002048e-66
 -3.7176793e-66
  0.0000000e+00
  1.8555436e-65
 -3.4436780e-65
 -4.0468898e-65
  2.4090223e-64
 -2.2301792e-64
 -8.6894659e-64
  2.6915947e-63
  0.0000000e+00
 -1.3434110e-62
  2.4932181e-62
  2.9299426e-62
 -1.7441288e-61
  1.6146467e-61
  6.2911613e-61
 -1.9487108e-60
  0.0000000e+00
  9.7262771e-60
 -1.8050865e-59
 -2.1212744e-59
  1.2627469e-58
 -1.1690019e-58
 -4.5547921e-58
  1.4108640e-57
  0.0000000e+00
 -7.0418112e-57
  1.3068801e-56
  1.5357997e-56
 -9.1422699e-56
  8.4635580e-56
  3.2976632e-55
 -1.0214636e-54
  0.0000000e+00
  5.0982616e-54
 -9.4617939e-54
 -1.1119169e-53
  6.6189908e-53
 -6.1276043e-53
 -2.3875036e-52
  7.3953820e-52
  0.0000000e+00
 -3.6911343e-51
  6.8503257e-51
  8.0502629e-51
 -4.7921402e-50
  4.4363770e-50
  1.7285493e-49
 -5.3542464e-49
  0.0000000e+00
  2.6723762e-48
 -4.9596263e-48
 -5.8283792e-48
  3.4695029e-47
 -3.2119308e-47
 -1.2514673e-46
  3.8764670e-46
  0.0000000e+00
 -1.9347966e-45
  3.5907626e-45
  4.2197385e-45
 -2.5119153e-44
  2.3254335e-44
  9.0606061e-44
 -2.8065567e-43
  0.0000000e+00
  1.4007901e-42
 -2.5997072e-42
 -3.0550848e-42
  1.8186232e-41
 -1.6836106e-41
 -6.5598663e-41
  2.0319432e-40
  0.0000000e+00
 -1.0141701e-39
  1.8821844e-39
  2.2118772e-39
 -1.3166807e-38
  1.2189318e-38
  4.7493341e-38
 -1.4711241e-37
  0.0000000e+00
  7.3425775e-37
 -1.3626989e-36
 -1.6013960e-36
  9.5327500e-36
 -8.8250492e-36
 -3.4385113e-35
  1.0650918e-34
  0.0000000e+00
 -5.3160160e-34
  9.8659213e-34
  1.1594085e-33
 -6.9016978e-33
  6.3893235e-33
  2.4894775e-32
 -7.7112499e-32
  0.0000000e+00
  3.8487882e-31
 -7.1429134e-31
 -8.3941017e-31
  4.9968197e-30
 -4.6258614e-30
 -1.8023782e-29
  5.5829343e-29
  0.0000000e+00
 -2.7865174e-28
  5.1714594e-28
  6.0773180e-28
 -3.6176905e-27
  3.3491172e-27
  1.3049194e-26
 -4.0420367e-26
  0.0000000e+00
  2.0174347e-25
 -3.7441295e-25
 -4.3999699e-25
  2.6192030e-24
 -2.4247562e-24
 -9.4475981e-24
  2.9264290e-23
  0.0000000e+00
 -1.4606199e-22
  2.7107446e-22
  3.1855721e-22
 -1.8962993e-21
  1.7555202e-21
  6.8400480e-21
 -2.1187305e-20
  0.0000000e+00
  1.0574868e-19
 -1.9625753e-19
 -2.3063498e-19
  1.3729181e-18
 -1.2709942e-18
 -4.9521853e-18
  1.5339580e-17
  0.0000000e+00
 -7.6561900e-17
  1.4209018e-16
  1.6697941e-16
 -9.9399080e-16
  9.2019803e-16
  3.5853753e-15
 -1.1105835e-14
  0.0000000e+00
  5.5430710e-14
 -1.0287310e-13
 -1.2089286e-13
  7.1964797e-13
 -6.6622210e-13
 -2.5958068e-12
  8.0406089e-12
  0.0000000e+00
 -4.0131757e-11
  7.4479979e-11
  8.7526264e-11
 -5.2102413e-10
  4.8234388e-10
  1.8793605e-09
 -5.8213898e-09
 -6.3507142e-21
  2.9055337e-08
 -5.3923402e-08
 -6.3368894e-08
  3.7722075e-07
 -3.4921631e-07
 -1.3606544e-06
  4.2146781e-06
 -6.5003558e-18
 -4.0567274e-05
 -1.0689703e-04
 -3.9316321e-05
  4.7689270e-04
  1.5647071e-03
  3.2188619e-03
  5.3427195e-03
  7.7000000e-03
  1.0038646e-02
  1.2434130e-02
  1.4948283e-02
  1.7524311e-02
  2.0149502e-02
  2.2839702e-02
  2.5620796e-02
  2.8500000e-02
  3.1471469e-02
  3.4538626e-02
  3.7698270e-02
  4.0936600e-02
  4.4248066e-02
  4.7629436e-02
  5.1075051e-02
  5.4600000e-02
  5.8225093e-02
  6.1929368e-02
  6.5697989e-02
  6.9537057e-02
  7.3447769e-02
  7.7420107e-02
  8.1428905e-02
  8.5500000e-02
  8.9678191e-02
  9.3921248e-02
  9.8199076e-02
  1.0252433e-01
  1.0689849e-01
  1.1131033e-01
  1.1573731e-01
  1.2020000e-01
  1.2473585e-01
  1.2931267e-01
  1.3390117e-01
  1.3849847e-01
  1.4310058e-01
  1.4770995e-01
  1.5234458e-01
  1.5700000e-01
  1.6165437e-01
  1.6629240e-01
  1.7090226e-01
  1.7547453e-01
  1.8000145e-01
  1.8448872e-01
  1.8896616e-01
  1.9340000e-01
  1.9772678e-01
  2.0196985e-01
  2.0615162e-01
  2.1026458e-01
  2.1430068e-01
  2.1824078e-01
  2.2204234e-01
  2.2570000e-01
  2.2923533e-01
  2.3265293e-01
  2.3595370e-01
  2.3913870e-01
  2.4220276e-01
  2.4514039e-01
  2.4794963e-01
  2.5060000e-01
  2.5305374e-01
  2.5533287e-01
  2.5745504e-01
  2.5941327e-01
  2.6120510e-01
  2.6284144e-01
  2.6435214e-01
  2.6570000e-01
  2.6681587e-01
  2.6771760e-01
  2.6844958e-01
  2.6905698e-01
  2.6954853e-01
  2.6987153e-01
  2.6988417e-01
  2.6960000e-01
  2.6914118e-01
  2.6854688e-01
  2.6780861e-01
  2.6688631e-01
  2.6575703e-01
  2.6444790e-01
  2.6306378e-01
  2.6150000e-01
  2.5957019e-01
  2.5743671e-01
  2.5520510e-01
  2.5280070e-01
  2.5020679e-01
  2.4744442e-01
  2.4454548e-01
  2.4150000e-01
  2.3828556e-01
  2.3496218e-01
  2.3155535e-01
  2.2802320e-01
  2.2435618e-01
  2.2057425e-01
  2.1672275e-01
  2.1280000e-01
  2.0877661e-01
  2.0466807e-01
  2.0049912e-01
  1.9628999e-01
  1.9204960e-01
  1.8777853e-01
  1.8346896e-01
  1.7910000e-01
  1.7465842e-01
  1.7019728e-01
  1.6574929e-01
  1.6130081e-01
  1.5684982e-01
  1.5239967e-01
  1.4795074e-01
  1.4350000e-01
  1.3904659e-01
  1.3460724e-01
  1.3019760e-01
  1.2582593e-01
  1.2149818e-01
  1.1720989e-01
  1.1293812e-01
  1.0870000e-01
  1.0453237e-01
  1.0042002e-01
  9.6348895e-02
  9.2323684e-02
  8.8349459e-02
  8.4430854e-02
  8.0573521e-02
  7.6800000e-02
  7.3129834e-02
  6.9519816e-02
  6.5947706e-02
  6.2437058e-02
  5.8998129e-02
  5.5646529e-02
  5.2421833e-02
  4.9300000e-02
  4.6227310e-02
  4.3236829e-02
  4.0347908e-02
  3.7536374e-02
  3.4798714e-02
  3.2140518e-02
  2.9565494e-02
  2.7100000e-02
  2.4770264e-02
  2.2531948e-02
  2.0349786e-02
  1.8223037e-02
  1.6149352e-02
  1.4138224e-02
  1.2226017e-02
  1.0400000e-02
  8.6252276e-03
  6.9394875e-03
  5.3507985e-03
  3.8144822e-03
  2.3583225e-03
  1.0977669e-03
  2.5605631e-04
 -1.0000000e-04
 -8.3851490e-05
  2.8693414e-06
  2.8628745e-06
 -3.1346499e-06
  5.2658634e-07
  4.4809567e-07
 -2.4144564e-07
  0.0000000e+00
  4.8374906e-08
 -1.5617214e-08
 -4.0082079e-09
  4.3296352e-09
 -7.2733059e-10
 -6.1891785e-10
  3.3348910e-10
  0.0000000e+00
 -6.6816297e-11
  2.1570779e-11
  5.5362093e-12
 -5.9801705e-12
  1.0046022e-12
  8.5486054e-13
 -4.6062118e-13
  0.0000000e+00
  9.2287878e-14
 -2.9793950e-14
 -7.6467125e-15
  8.2599197e-15
 -1.3875747e-15
 -1.1807489e-15
  6.3621831e-16
  0.0000000e+00
 -1.2746969e-16
  4.1151943e-17
  1.0561778e-17
 -1.1408751e-17
  1.9165433e-18
  1.6308717e-18
 -8.7875625e-19
  0.0000000e+00
  1.7606344e-19
 -5.6839809e-20
 -1.4588119e-20
  1.5757973e-20
 -2.6471643e-21
 -2.2525895e-21
  1.2137540e-21
  0.0000000e+00
 -2.4318201e-22
  7.8508173e-23
  2.0149374e-23
 -2.1765198e-23
  3.6563113e-24
  3.1113174e-24
 -1.6764591e-24
  0.0000000e+00
  3.3588740e-25
 -1.0843691e-25
 -2.7830680e-26
  3.0062485e-26
 -5.0501633e-27
 -4.2974080e-27
  2.3155557e-27
  0.0000000e+00
 -4.6393414e-28
  1.4977574e-28
  3.8441081e-29
 -4.1527863e-29
  6.9800197e-30
  5.9537471e-30
 -3.2543200e-30
  0.0000000e+00
  9.2046038e-31
 -7.2590153e-31
 -6.6303971e-31
  3.6882194e-30
 -3.3709503e-30
 -1.3104921e-29
  4.0572008e-29
  0.0000000e+00
 -2.0247917e-28
  3.7577696e-28
  4.4159967e-28
 -2.6287430e-27
  2.4335880e-27
  9.4820093e-27
 -2.9370880e-26
  0.0000000e+00
  1.4659400e-25
 -2.7206180e-25
 -3.1971750e-25
  1.9032062e-24
 -1.7619143e-24
 -6.8649616e-24
  2.1264476e-23
  0.0000000e+00
 -1.0613385e-22
  1.9697236e-22
  2.3147503e-22
 -1.3779187e-21
  1.2756235e-21
  4.9702227e-21
 -1.5395451e-20
  0.0000000e+00
  7.6840763e-20
 -1.4260772e-19
 -1.6758760e-19
  9.9761123e-19
 -9.2354969e-19
 -3.5984344e-18
  1.1146286e-17
  0.0000000e+00
 -5.5632606e-17
  1.0324779e-16
  1.2133319e-16
 -7.2226915e-16
  6.6864870e-16
  2.6052615e-15
 -8.0698954e-15
  0.0000000e+00
  4.0277930e-14
 -7.4751259e-14
 -8.7845062e-14
  5.2292187e-13
 -4.8410073e-13
 -1.8862058e-12
  5.8425931e-12
  0.0000000e+00
 -2.9161166e-11
  5.4119808e-11
  6.3599704e-11
 -3.7859471e-10
  3.5048826e-10
  1.3656104e-09
 -4.2300293e-09
  0.0000000e+00
  2.1112644e-08
 -3.9182666e-08
 -4.6046098e-08
  2.7410205e-07
 -2.5375302e-07
 -9.8870001e-07
  3.0625354e-06
  0.0000000e+00
 -1.5285525e-05
  2.9305696e-05
  7.3532624e-05
 -1.1844950e-04
 -6.2737692e-04
 -1.4491826e-03
 -2.5465683e-03
 -3.7000000e-03
 -4.6231449e-03
 -5.3125975e-03
 -5.8842531e-03
 -6.5028330e-03
 -7.2369451e-03
 -8.0249037e-03
 -8.6337265e-03
 -9.1000000e-03
 -9.6313403e-03
 -1.0216222e-02
 -1.0804415e-02
 -1.1370450e-02
 -1.1903922e-02
 -1.2413967e-02
 -1.2938562e-02
 -1.3500000e-02
 -1.4097443e-02
 -1.4698820e-02
 -1.5297467e-02
 -1.5926640e-02
 -1.6597536e-02
 -1.7315655e-02
 -1.8095226e-02
 -1.8900000e-02
 -1.9685581e-02
 -2.0532962e-02
 -2.1495584e-02
 -2.2552181e-02
 -2.3695780e-02
 -2.4933859e-02
 -2.6282706e-02
 -2.7700000e-02
 -2.9129205e-02
 -3.0640398e-02
 -3.2292384e-02
 -3.4089269e-02
 -3.6044588e-02
 -3.8150470e-02
 -4.0346942e-02
 -4.2700000e-02
 -4.5331526e-02
 -4.8177948e-02
 -5.1193397e-02
 -5.4412301e-02
 -5.7842642e-02
 -6.1466237e-02
 -6.5243183e-02
 -6.9200000e-02
 -7.3391135e-02
 -7.7769515e-02
 -8.2296392e-02
 -8.6975115e-02
 -9.1794069e-02
 -9.6734118e-02
 -1.0177695e-01
 -1.0690000e-01
 -1.1208246e-01
 -1.1732343e-01
 -1.2260359e-01
 -1.2787478e-01
 -1.3309993e-01
 -1.3827365e-01
 -1.4343850e-01
 -1.4850000e-01
 -1.5330879e-01
 -1.5793649e-01
 -1.6241180e-01
 -1.6663958e-01
 -1.7055636e-01
 -1.7413728e-01
 -1.7739388e-01
 -1.8020000e-01
 -1.8237724e-01
 -1.8397641e-01
 -1.8502373e-01
 -1.8544084e-01
 -1.8516797e-01
 -1.8417574e-01
 -1.8246700e-01
 -1.7990000e-01
 -1.7628962e-01
 -1.7173393e-01
 -1.6628539e-01
 -1.5985082e-01
 -1.5238274e-01
 -1.4389705e-01
 -1.3448018e-01
 -1.2400000e-01
 -1.1222385e-01
 -9.9218729e-02
 -8.5041017e-02
 -6.9638886e-02
 -5.2990553e-02
 -3.5141386e-02
 -1.6228846e-02
  3.9000000e-03
  2.5528972e-02
  4.8533605e-02
  7.2808234e-02
  9.8399254e-02
  1.2530489e-01
  1.5347701e-01
  1.8283099e-01
  2.1340000e-01
  2.4525408e-01
  2.7823350e-01
  3.1218125e-01
  3.4701433e-01
  3.8261523e-01
  4.1888682e-01
  4.5580127e-01
  4.9310000e-01
  5.3045406e-01
  5.6798924e-01
  6.0575585e-01
  6.4356105e-01
  6.8123835e-01
  7.1870275e-01
  7.5597537e-01
  7.9260000e-01
  8.2796419e-01
  8.6234000e-01
  8.9589144e-01
  9.2835808e-01
  9.5951891e-01
  9.8929750e-01
  1.0178115e+00
  1.0443000e+00
  1.0677223e+00
  1.0886950e+00
  1.1076309e+00
  1.1241577e+00
  1.1380677e+00
  1.1493699e+00
  1.1582762e+00
  1.1641000e+00
  1.1659165e+00
  1.1646872e+00
  1.1611158e+00
  1.1549782e+00
  1.1462222e+00
  1.1350074e+00
  1.1216658e+00
  1.1056000e+00
  1.0859408e+00
  1.0636549e+00
  1.0394896e+00
  1.0133273e+00
  9.8520548e-01
  9.5532582e-01
  9.2399366e-01
  8.9080000e-01
  8.5515602e-01
  8.1798572e-01
  7.7996003e-01
  7.4095811e-01
  7.0108782e-01
  6.6061012e-01
  6.1982740e-01
  5.7880000e-01
  5.3745555e-01
  4.9595820e-01
  4.5464056e-01
  4.1394143e-01
  3.7404924e-01
  3.3492173e-01
  2.9626957e-01
  2.5790000e-01
  2.2003169e-01
  1.8408421e-01
  1.5010378e-01
  1.1624890e-01
  8.2741919e-02
  4.9955229e-02
  1.6941482e-02
 -9.2000000e-03
 -2.0166795e-02
 -2.7997465e-02
 -4.0488267e-02
 -5.3704977e-02
 -6.6724688e-02
 -7.9907934e-02
 -9.2658337e-02
 -1.0430000e-01
 -1.1444745e-01
 -1.2371004e-01
 -1.3258713e-01
 -1.4112555e-01
 -1.4945930e-01
 -1.5775916e-01
 -1.6615480e-01
 -1.7470000e-01
 -1.8332052e-01
 -1.9165245e-01
 -1.9947295e-01
 -2.0682888e-01
 -2.1371960e-01
 -2.2015363e-01
 -2.2621844e-01
 -2.3190000e-01
 -2.3716553e-01
 -2.4224954e-01
 -2.4729881e-01
 -2.5226081e-01
 -2.5709522e-01
 -2.6175053e-01
 -2.6612410e-01
 -2.7010000e-01
 -2.7360801e-01
 -2.7677816e-01
 -2.7970508e-01
 -2.8237649e-01
 -2.8480896e-01
 -2.8703720e-01
 -2.8909819e-01
 -2.9100000e-01
 -2.9271944e-01
 -2.9419944e-01
 -2.9540926e-01
 -2.9636169e-01
 -2.9705896e-01
 -2.9753109e-01
 -2.9787148e-01
 -2.9800000e-01
 -2.9777064e-01
 -2.9733338e-01
 -2.9680071e-01
 -2.9614253e-01
 -2.9535145e-01
 -2.9442028e-01
 -2.9331090e-01
 -2.9200000e-01
 -2.9049312e-01
 -2.8885154e-01
 -2.8710459e-01
 -2.8522493e-01
 -2.8320498e-01
 -2.8106154e-01
 -2.7883693e-01
 -2.7650000e-01
 -2.7398922e-01
 -2.7135787e-01
 -2.6865077e-01
 -2.6586479e-01
 -2.6300137e-01
 -2.6006887e-01
 -2.5707985e-01
 -2.5400000e-01
 -2.5078125e-01
 -2.4746663e-01
 -2.4409881e-01
 -2.4068993e-01
 -2.3724986e-01
 -2.3375489e-01
 -2.3011715e-01
 -2.2640000e-01
 -2.2274296e-01
 -2.1909733e-01
 -2.1540491e-01
 -2.1165801e-01
 -2.0785496e-01
 -2.0402230e-01
 -2.0024055e-01
 -1.9650000e-01
 -1.9272336e-01
 -1.8886512e-01
 -1.8494391e-01
 -1.8104340e-01
 -1.7719464e-01
 -1.7340151e-01
 -1.6966019e-01
 -1.6590000e-01
 -1.6204800e-01
 -1.5822289e-01
 -1.5449734e-01
 -1.5082641e-01
 -1.4719787e-01
 -1.4358401e-01
 -1.3989326e-01
 -1.3620000e-01
 -1.3266270e-01
 -1.2923760e-01
 -1.2585480e-01
 -1.2248042e-01
 -1.1910490e-01
 -1.1575459e-01
 -1.1250996e-01
 -1.0940000e-01
 -1.0639290e-01
 -1.0339720e-01
 -1.0039362e-01
 -9.7467190e-02
 -9.4643164e-02
 -9.1919897e-02
 -8.9297761e-02
 -8.6700000e-02
 -8.4040512e-02
 -8.1432434e-02
 -7.8946632e-02
 -7.6538672e-02
 -7.4197281e-02
 -7.1894108e-02
 -6.9534002e-02
 -6.7200000e-02
 -6.5059126e-02
 -6.3037660e-02
 -6.1053605e-02
 -5.9094244e-02
 -5.7152925e-02
 -5.5234549e-02
 -5.3369091e-02
 -5.1600000e-02
 -4.9944870e-02
 -4.8289553e-02
 -4.6594949e-02
 -4.4953446e-02
 -4.3394759e-02
 -4.1913461e-02
 -4.0495852e-02
 -3.9100000e-02
 -3.7688680e-02
 -3.6325874e-02
 -3.5048084e-02
 -3.3825767e-02
 -3.2647913e-02
 -3.1500313e-02
 -3.0342994e-02
 -2.9200000e-02
 -2.8130122e-02
 -2.7122783e-02
 -2.6151869e-02
 -2.5196351e-02
 -2.4252278e-02
 -2.3324651e-02
 -2.2424138e-02
 -2.1600000e-02
 -2.0892589e-02
 -2.0192318e-02
 -1.9447914e-02
 -1.8726184e-02
 -1.8047510e-02
 -1.7406992e-02
 -1.6797293e-02
 -1.6200000e-02
 -1.5597320e-02
 -1.5006950e-02
 -1.4447462e-02
 -1.3926471e-02
 -1.3447648e-02
 -1.2991284e-02
 -1.2495792e-02
 -1.2000000e-02
 -1.1588621e-02
 -1.1203695e-02
 -1.0800972e-02
 -1.0398804e-02
 -1.0000414e-02
 -9.6176652e-03
 -9.2955807e-03
 -9.0000000e-03
 -8.6576401e-03
 -8.2964952e-03
 -7.9479460e-03
 -7.6144160e-03
 -7.2983569e-03
 -7.0066324e-03
 -6.7510238e-03
 -6.5000000e-03
 -6.2065291e-03
 -5.8968866e-03
 -5.5980828e-03
 -5.3140416e-03
 -5.0485514e-03
 -4.7907698e-03
 -4.5002673e-03
 -4.2000000e-03
 -3.9438420e-03
 -3.7019879e-03
 -3.4505100e-03
 -3.1994504e-03
 -2.9500911e-03
 -2.7000731e-03
 -2.4499751e-03
 -2.2000000e-03
 -1.9499209e-03
 -1.7001599e-03
 -1.4501904e-03
 -1.1988631e-03
 -9.5109218e-04
 -7.1254114e-04
 -4.8611666e-04
 -3.0000000e-04
 -1.8610118e-04
 -1.1256590e-04
 -5.1120506e-05
  1.3045392e-06
  4.9576478e-05
  8.2361381e-05
  5.4292872e-05
  0.0000000e+00
 -6.9646741e-06
  2.2484551e-06
  5.7707319e-07
 -6.2335000e-07
  1.0471587e-07
  8.9107379e-08
 -4.8013382e-08
  0.0000000e+00
  9.6197340e-09
 -3.1056069e-09
 -7.9706394e-10
  8.6098231e-10
 -1.4463546e-10
 -1.2307673e-10
  6.6316953e-11
  0.0000000e+00
 -1.3286951e-11
  4.2895205e-12
  1.1009191e-12
 -1.1892043e-12
  1.9977311e-13
  1.6999580e-13
 -9.1598176e-14
  0.0000000e+00
  1.8352177e-14
 -5.9247634e-15
 -1.5206095e-15
  1.6425506e-15
 -2.7593024e-16
 -2.3480128e-16
  1.2651706e-16
  0.0000000e+00
 -2.5348359e-17
  8.1833905e-18
  2.1002933e-18
 -2.2687206e-18
  3.8111984e-19
  3.2431178e-19
 -1.7474765e-19
  0.0000000e+00
  3.5011612e-20
 -1.1303047e-20
 -2.9009631e-21
  3.1335980e-21
 -5.2640963e-22
 -4.4794530e-22
  2.4136462e-22
  0.0000000e+00
 -4.8358673e-23
  1.5611973e-23
  4.0068628e-24
 -4.3281822e-24
  7.2708651e-25
  6.1871016e-25
 -3.3337718e-25
  0.0000000e+00
  6.6793875e-26
 -2.1563540e-26
 -5.5343515e-27
  5.9781637e-27
 -1.0042651e-27
 -8.5457367e-28
  4.6046660e-28
  0.0000000e+00
 -9.2256909e-29
  2.9783952e-29
  7.6441464e-30
 -8.2571479e-30
  1.3871091e-30
  1.1803526e-30
 -6.3600481e-31
  0.0000000e+00
  1.2742691e-31
 -4.1138134e-32
 -1.0558233e-32
  1.1404922e-32
 -1.9159002e-33
 -1.6303244e-33
  8.7846136e-34
  0.0000000e+00
 -1.7600436e-34
  5.6820735e-35
  1.4583223e-35
 -1.5752685e-35
  2.6462760e-36
  2.2518336e-36
 -1.2133467e-36
  0.0000000e+00
  2.4310041e-37
 -7.8481828e-38
 -2.0142612e-38
  2.1757894e-38
 -3.6550843e-39
 -3.1102733e-39
  1.6758965e-39
  0.0000000e+00
 -3.3577468e-40
  1.0840052e-40
  2.7821340e-41
 -3.0052397e-41
  5.0484686e-42
  4.2959658e-42
 -2.3147785e-42
  0.0000000e+00
  4.6377807e-43
 -1.4972476e-43
 -3.8427339e-44
  4.1508914e-44
 -6.9730363e-45
 -5.9336658e-45
  3.1972141e-45
  0.0000000e+00
 -6.4057874e-46
  2.0680269e-46
  5.3076694e-47
 -5.7333802e-47
  9.6321527e-48
  8.1990714e-48
 -4.4265345e-48
  0.0000000e+00
  9.3710861e-49
 -3.8275751e-49
 -1.8744004e-49
  7.5857799e-49
 -6.4225463e-49
 -2.4619099e-48
  7.5968937e-48
  0.0000000e+00
 -3.7887894e-47
  7.0313750e-47
  8.2629895e-47
 -4.9187666e-46
  4.5536020e-46
  1.7742237e-45
 -5.4957245e-45
  0.0000000e+00
  2.7429898e-44
 -5.0906772e-44
 -5.9823857e-44
  3.5611794e-43
 -3.2968014e-43
 -1.2845355e-42
  3.9788970e-42
  0.0000000e+00
 -1.9859208e-41
  3.6856433e-41
  4.3312390e-41
 -2.5782890e-40
  2.3868797e-40
  9.3000194e-40
 -2.8807159e-39
  0.0000000e+00
  1.4378039e-38
 -2.6684007e-38
 -3.1358110e-38
  1.8666777e-37
 -1.7280976e-37
 -6.7332012e-37
  2.0856343e-36
  4.5520305e-48
 -1.0409681e-35
  1.9319184e-35
  2.2703228e-35
 -1.3514721e-34
  1.2511403e-34
  4.8748284e-34
 -1.5099964e-33
 -3.2952935e-45
  7.5365944e-33
 -1.3987062e-32
 -1.6437106e-32
  9.7846390e-32
 -9.0582383e-32
 -3.5293690e-31
  1.0932353e-30
  2.3871489e-42
 -5.4564839e-30
  1.0126614e-29
  1.1900442e-29
 -7.0840651e-29
  6.5581520e-29
  2.5552583e-28
 -7.9150084e-28
 -1.7285644e-39
  3.9504868e-27
 -7.3316545e-27
 -8.6159036e-27
  5.1288534e-26
 -4.7480930e-26
 -1.8500035e-25
  5.7304552e-25
  1.2512526e-36
 -2.8601470e-24
  5.3081077e-24
  6.2379023e-24
 -3.7132828e-23
  3.4376128e-23
  1.3394000e-22
 -4.1488416e-22
 -9.0595745e-34
  2.0707425e-21
 -3.8430626e-21
 -4.5162327e-21
  2.6884116e-20
 -2.4888269e-20
 -9.6972372e-20
  3.0037556e-19
  6.5562230e-31
 -1.4992147e-18
  2.7823720e-18
  3.2697462e-18
 -1.9464063e-17
  1.8019072e-17
  7.0207863e-17
 -2.1747149e-16
 -4.7474028e-28
  1.0854294e-15
 -2.0144335e-15
 -2.3672917e-15
  1.4091955e-14
 -1.3045784e-14
 -5.0830396e-14
  1.5744906e-13
  3.4377626e-25
 -7.8584937e-13
  1.4584471e-12
  1.7139160e-12
 -1.0202556e-11
  9.4451293e-12
  3.6801136e-11
 -1.1399290e-10
 -2.4885828e-22
  5.6895386e-10
 -1.0559137e-09
 -1.2408728e-09
  7.3866362e-09
 -6.8382605e-09
 -2.6643972e-08
  8.2530703e-08
  1.8015103e-19
 -4.1192181e-07
  7.6448004e-07
  8.9839018e-07
 -5.3479144e-06
  5.3805787e-06
  1.1210270e-04
  4.7735726e-04
  1.1000000e-03
  1.8458871e-03
  2.5912050e-03
  3.2975746e-03
  4.0268826e-03
  4.7970460e-03
  5.5970476e-03
  6.4030269e-03
  7.2000000e-03
  7.9910647e-03
  8.8180622e-03
  9.6993367e-03
  1.0612322e-02
  1.1549334e-02
  1.2509792e-02
  1.3491701e-02
  1.4500000e-02
  1.5541655e-02
  1.6609866e-02
  1.7699419e-02
  1.8811818e-02
  1.9949764e-02
  2.1111441e-02
  2.2286610e-02
  2.3500000e-02
  2.4786580e-02
  2.6111489e-02
  2.7449819e-02
  2.8811495e-02
  3.0199757e-02
  3.1619468e-02
  3.3086878e-02
  3.4600000e-02
  3.6143287e-02
  3.7708276e-02
  3.9297828e-02
  4.0925911e-02
  4.2598051e-02
  4.4325810e-02
  4.6138832e-02
  4.8000000e-02
  4.9845144e-02
  5.1714772e-02
  5.3646298e-02
  5.5639281e-02
  5.7696910e-02
  5.9801048e-02
  6.1887395e-02
  6.4000000e-02
  6.6230949e-02
  6.8512300e-02
  7.0798907e-02
  7.3124462e-02
  7.5498557e-02
  7.7927219e-02
  8.0434869e-02
  8.3000000e-02
  8.5584047e-02
  8.8228534e-02
  9.0950061e-02
  9.3710562e-02
  9.6500613e-02
  9.9322795e-02
  1.0217658e-01
  1.0510000e-01
  1.0813376e-01
  1.1121036e-01
  1.1429726e-01
  1.1743840e-01
  1.2064692e-01
  1.2390878e-01
  1.2718882e-01
  1.3050000e-01
  1.3388163e-01
  1.3732123e-01
  1.4080028e-01
  1.4431049e-01
  1.4785047e-01
  1.5143037e-01
  1.5507819e-01
  1.5880000e-01
  1.6258379e-01
  1.6642047e-01
  1.7030002e-01
  1.7421116e-01
  1.7814988e-01
  1.8210331e-01
  1.8603704e-01
  1.9000000e-01
  1.9407598e-01
  1.9822288e-01
  2.0240052e-01
  2.0661136e-01
  2.1084916e-01
  2.1510013e-01
  2.1934717e-01
  2.2360000e-01
  2.2788613e-01
  2.3221965e-01
  2.3659975e-01
  2.4101188e-01
  2.4544933e-01
  2.4989299e-01
  2.5429399e-01
  2.5870000e-01
  2.6319409e-01
  2.6769284e-01
  2.7214916e-01
  2.7661290e-01
  2.8109873e-01
  2.8559912e-01
  2.9009981e-01
  2.9460000e-01
  2.9910389e-01
  3.0359166e-01
  3.0805107e-01
  3.1248703e-01
  3.1690104e-01
  3.2129977e-01
  3.2570376e-01
  3.3010000e-01
  3.3445861e-01
  3.3879108e-01
  3.4310197e-01
  3.4737453e-01
  3.5160174e-01
  3.5579005e-01
  3.5996191e-01
  3.6410000e-01
  3.6816763e-01
  3.7217997e-01
  3.7615109e-01
  3.8007642e-01
  3.8395044e-01
  3.8776876e-01
  3.9152768e-01
  3.9520000e-01
  3.9876417e-01
  4.0229224e-01
  4.0580556e-01
  4.0923514e-01
  4.1255506e-01
  4.1577347e-01
  4.1892261e-01
  4.2200000e-01
  4.2497989e-01
  4.2786087e-01
  4.3065153e-01
  4.3336408e-01
  4.3600132e-01
  4.3855165e-01
  4.4098357e-01
  4.4330000e-01
  4.4552642e-01
  4.4766403e-01
  4.4970461e-01
  4.5163662e-01
  4.5345425e-01
  4.5516241e-01
  4.5678161e-01
  4.5830000e-01
  4.5968797e-01
  4.6095129e-01
  4.6210240e-01
  4.6315056e-01
  4.6410316e-01
  4.6495475e-01
  4.6567688e-01
  4.6630000e-01
  4.6685689e-01
  4.6720486e-01
  4.6741783e-01
  4.6787558e-01
  4.6872166e-01
  4.6999579e-01
  4.7173825e-01
  4.7360000e-01
  4.7510589e-01
  4.7647258e-01
  4.7785472e-01
  4.7911307e-01
  4.8020599e-01
  4.8117840e-01
  4.8213726e-01
  4.8300000e-01
  4.8360134e-01
  4.8405400e-01
  4.8444982e-01
  4.8476556e-01
  4.8500113e-01
  4.8509392e-01
  4.8483694e-01
  4.8440000e-01
  4.8411375e-01
  4.8373479e-01
  4.8310438e-01
  4.8234930e-01
  4.8150247e-01
  4.8055907e-01
  4.7953936e-01
  4.7840000e-01
  4.7708235e-01
  4.7567124e-01
  4.7420551e-01
  4.7262332e-01
  4.7090594e-01
  4.6907319e-01
  4.6717608e-01
  4.6520000e-01
  4.6309040e-01
  4.6084841e-01
  4.5849933e-01
  4.5607842e-01
  4.5359990e-01
  4.5106751e-01
  4.4848091e-01
  4.4580000e-01
  4.4297917e-01
  4.4007029e-01
  4.3710307e-01
  4.3404964e-01
  4.3090369e-01
  4.2768137e-01
  4.2441952e-01
  4.2110000e-01
  4.1767662e-01
  4.1416907e-01
  4.1060049e-01
  4.0697654e-01
  4.0330087e-01
  3.9957077e-01
  3.9577118e-01
  3.9190000e-01
  3.8796638e-01
  3.8397939e-01
  3.7994985e-01
  3.7588956e-01
  3.7179938e-01
  3.6767727e-01
  3.6352317e-01
  3.5930000e-01
  3.5496753e-01
  3.5058723e-01
  3.4619991e-01
  3.4178846e-01
  3.3735061e-01
  3.3289042e-01
  3.2840732e-01
  3.2390000e-01
  3.1936357e-01
  3.1477947e-01
  3.1014896e-01
  3.0550122e-01
  3.0084959e-01
  2.9619064e-01
  2.9150366e-01
  2.8680000e-01
  2.8210436e-01
  2.7738953e-01
  2.7264832e-01
  2.6791374e-01
  2.6319860e-01
  2.5849081e-01
  2.5375026e-01
  2.4900000e-01
  2.4429379e-01
  2.3960209e-01
  2.3490063e-01
  2.3019874e-01
  2.2550078e-01
  2.2081106e-01
  2.1614091e-01
  2.1150000e-01
  2.0689244e-01
  2.0230861e-01
  1.9774798e-01
  1.9322533e-01
  1.8874841e-01
  1.8430233e-01
  1.7983671e-01
  1.7540000e-01
  1.7108106e-01
  1.6681231e-01
  1.6254896e-01
  1.5832411e-01
  1.5414881e-01
  1.5001164e-01
  1.4588319e-01
  1.4180000e-01
  1.3782601e-01
  1.3392406e-01
  1.3005214e-01
  1.2619643e-01
  1.2235201e-01
  1.1853997e-01
  1.1482674e-01
  1.1120000e-01
  1.0759589e-01
  1.0400653e-01
  1.0044637e-01
  9.6938791e-02
  9.3497337e-02
  9.0102696e-02
  8.6682303e-02
  8.3300000e-02
  8.0075881e-02
  7.6913909e-02
  7.3749290e-02
  7.0624234e-02
  6.7548384e-02
  6.4518027e-02
  6.1538546e-02
  5.8600000e-02
  5.5687783e-02
  5.2819248e-02
  4.9999781e-02
  4.7210971e-02
  4.4450447e-02
  4.1730550e-02
  3.9077434e-02
  3.6500000e-02
  3.3987781e-02
  3.1512119e-02
  2.9051112e-02
  2.6598044e-02
  2.4151223e-02
  2.1737405e-02
  1.9434349e-02
  1.7200000e-02
  1.4938732e-02
  1.2729455e-02
  1.0603003e-02
  8.4855166e-03
  6.4131503e-03
  4.3923581e-03
  2.2889541e-03
  6.0000000e-04
  8.7110489e-06
 -5.4565526e-05
 -8.0505103e-05
 -5.7038945e-05
 -4.2733551e-05
 -7.6538430e-05
 -5.7430430e-05
  0.0000000e+00
  7.5933003e-06
 -2.4513990e-06
 -6.2915938e-07
  6.7961310e-07
 -1.1416745e-07
 -9.7150144e-08
  5.2347034e-08
  0.0000000e+00
 -1.0488004e-08
  3.3859166e-09
  8.6900633e-10
 -9.3869392e-10
  1.5769015e-10
  1.3418554e-10
 -7.2302671e-11
  0.0000000e+00
  1.4486221e-11
 -4.6766894e-12
 -1.2002873e-12
  1.2965410e-12
 -2.1780448e-13
 -1.8533949e-13
  9.9865758e-14
  0.0000000e+00
 -2.0008631e-14
  6.4595280e-15
  1.6578585e-15
 -1.7908059e-15
  3.0083550e-16
  2.5599426e-16
 -1.3793639e-16
  0.0000000e+00
  2.7636283e-17
 -8.9220171e-18
 -2.2898642e-18
  2.4734936e-18
 -4.1551943e-19
 -3.5358391e-19
  1.9052024e-19
  0.0000000e+00
 -3.8171734e-20
  1.2323252e-20
  3.1628019e-21
 -3.4164341e-21
  5.7392296e-22
  4.8837650e-22
 -2.6315001e-22
  0.0000000e+00
  5.2723490e-23
 -1.7021098e-23
 -4.3685192e-24
  4.7188407e-24
 -7.9271279e-25
 -6.7455446e-25
  3.6346756e-25
  0.0000000e+00
 -7.2822639e-26
  2.3509849e-26
  6.0338778e-27
 -6.5177482e-27
  1.0949093e-27
  9.3170684e-28
 -5.0202797e-28
  0.0000000e+00
  1.0058395e-28
 -3.2472229e-29
 -8.3341013e-30
  9.0024318e-30
 -1.5123085e-30
 -1.2868904e-30
  6.9341012e-31
  0.0000000e+00
 -1.3892837e-31
  4.4851230e-32
  1.1511212e-32
 -1.2434322e-32
  2.0888279e-33
  1.7774763e-33
 -9.5775061e-34
  0.0000000e+00
  1.9189038e-34
 -6.1949331e-35
 -1.5899494e-35
  1.7174510e-35
 -2.8851269e-36
 -2.4550824e-36
  1.3228625e-36
  5.7803562e-49
 -2.6504247e-37
  8.5565538e-38
  2.1960669e-38
 -2.3721745e-38
  3.9849895e-39
  3.3910042e-39
 -1.8271616e-39
 -7.9969120e-52
  3.6608145e-40
 -1.1818467e-40
 -3.0332473e-41
  3.2764903e-41
 -5.5041396e-42
 -4.6837164e-42
  2.5237087e-42
  1.1066916e-54
 -5.0563833e-43
  1.6323881e-43
  4.1895761e-44
 -4.5255477e-44
  7.6024172e-45
  6.4692340e-45
 -3.4857922e-45
 -1.5212116e-57
  6.9839681e-46
 -2.2546839e-46
 -5.7867184e-47
  6.2507685e-47
 -1.0500596e-47
 -8.9354231e-48
  4.8146392e-48
  2.1108468e-60
 -9.6463833e-49
  3.1142103e-49
  7.9927202e-50
 -8.6336746e-50
  1.4503614e-50
  1.2341768e-50
 -6.6500669e-51
 -2.9092596e-63
  1.3323759e-51
 -4.3014036e-52
 -1.1039690e-52
  1.1924988e-52
 -2.0032654e-53
 -1.7046674e-53
  9.1851928e-54
  4.0109278e-66
 -1.8403017e-54
  5.9411766e-55
  1.5248220e-55
 -1.6471009e-55
  2.7669464e-56
  2.3545174e-56
 -1.2686755e-56
 -5.5489724e-69
  2.5418581e-57
 -8.2060607e-58
 -2.1061117e-58
  2.2750056e-58
 -3.8217565e-59
 -3.2521021e-59
  1.7523175e-59
  7.6502377e-72
 -3.5108604e-60
  1.1334360e-60
  2.9089996e-61
 -3.1422789e-61
  5.2786793e-62
  4.4918623e-62
 -2.4203327e-62
 -1.0583825e-74
  4.8492640e-63
 -1.5655223e-63
 -4.0179629e-64
  4.3401725e-64
 -7.2910074e-65
 -6.2042415e-65
  3.3430073e-65
  1.4619306e-77
 -6.6978912e-66
  2.1623277e-66
  5.5496831e-67
 -5.9947248e-67
  1.0070471e-67
  8.5694107e-68
 -4.6174222e-68
 -2.0187044e-80
  9.2512485e-69
 -2.9866462e-69
 -7.6653228e-70
  8.2800224e-70
 -1.3909517e-70
 -1.1836225e-70
  6.3776671e-71
  2.7831403e-83
 -1.2777992e-71
  4.1252097e-72
  1.0587483e-72
 -1.1436517e-72
  1.9212077e-73
  1.6348408e-73
 -8.8089493e-74
  0.0000000e+00
  1.7649194e-74
 -5.6978144e-75
 -1.4623623e-75
  1.5796324e-75
 -2.6536069e-76
 -2.2580718e-76
  1.2167080e-76
  0.0000000e+00
 -2.4377386e-77
  7.8699244e-78
  2.0198412e-78
 -2.1818169e-78
  3.6652099e-79
  3.1188896e-79
 -1.6805392e-79
  0.0000000e+00
  3.3670487e-80
 -1.0870082e-80
 -2.7898413e-81
  3.0135650e-81
 -5.0624542e-82
 -4.3078668e-82
  2.3211911e-82
  0.0000000e+00
 -4.6506267e-83
  1.5013919e-83
  3.8533380e-84
 -4.1621450e-84
  6.9900804e-85
  5.9412469e-85
 -3.1786371e-85
  0.0000000e+00
  5.0542617e-86
  4.6745638e-87
  2.4541064e-86
 -1.7202105e-85
  1.6360696e-85
  6.4040437e-85
 -1.9857794e-84
  0.0000000e+00
  9.9134128e-84
 -1.8398303e-83
 -2.1621068e-83
  1.2870538e-82
 -1.1915045e-82
 -4.6424689e-82
  1.4380222e-81
  0.0000000e+00
 -7.1773614e-81
  1.3320367e-80
  1.5653629e-80
 -9.3182526e-80
  8.6264759e-80
  3.3611411e-79
 -1.0411261e-78
  0.0000000e+00
  5.1963998e-78
 -9.6439272e-78
 -1.1333206e-77
  6.7464020e-77
 -6.2455566e-77
 -2.4334615e-76
  7.5377383e-76
  0.0000000e+00
 -3.7621862e-75
  6.9821900e-75
  8.2052252e-75
 -4.8843857e-74
  4.5217744e-74
  1.7618228e-73
 -5.4573121e-73
  0.0000000e+00
  2.7238176e-72
 -5.0550959e-72
 -5.9405717e-72
  3.5362885e-71
 -3.2737584e-71
 -1.2755572e-70
  3.9510864e-70
  0.0000000e+00
 -1.9720402e-69
  3.6598824e-69
  4.3009657e-69
 -2.5602680e-68
  2.3701966e-68
  9.2350168e-68
 -2.8605811e-67
  0.0000000e+00
  1.4277544e-66
 -2.6497498e-66
 -3.1138932e-66
  1.8536305e-65
 -1.7160190e-65
 -6.6861394e-65
  2.0710568e-64
  0.0000000e+00
 -1.0336922e-63
  1.9184152e-63
  2.2544544e-63
 -1.3420259e-62
  1.2423954e-62
  4.8407557e-62
 -1.4994422e-61
  0.0000000e+00
  7.4839173e-61
 -1.3889300e-60
 -1.6322219e-60
  9.7162492e-60
 -8.9949256e-60
 -3.5047004e-59
  1.0855941e-58
  0.0000000e+00
 -5.4183458e-58
  1.0055834e-57
  1.1817264e-57
 -7.0345510e-57
  6.5123137e-57
  2.5373983e-56
 -7.8596864e-56
  0.0000000e+00
  3.9228749e-55
 -7.2804098e-55
 -8.5556827e-55
  5.0930052e-54
 -4.7149062e-54
 -1.8370728e-53
  5.6904021e-53
  0.0000000e+00
 -2.8401560e-52
  5.2710066e-52
  6.1943024e-52
 -3.6873287e-51
  3.4135855e-51
  1.3300382e-50
 -4.1198432e-50
  0.0000000e+00
  2.0562690e-49
 -3.8162015e-49
 -4.4846664e-49
  2.6696209e-48
 -2.4714312e-48
 -9.6294582e-48
  2.9827608e-47
  0.0000000e+00
 -1.4887359e-46
  2.7629246e-46
  3.2468923e-46
 -1.9328018e-45
  1.7893128e-45
  6.9717145e-45
 -2.1595147e-44
  0.0000000e+00
  1.0778428e-43
 -2.0003536e-43
 -2.3507455e-43
  1.3993459e-42
 -1.2954600e-42
 -5.0475116e-42
  1.5634857e-41
  0.0000000e+00
 -7.8035666e-41
  1.4482533e-40
  1.7019365e-40
 -1.0131245e-39
  9.3791124e-40
  3.6543915e-39
 -1.1319615e-38
  0.0000000e+00
  5.6497715e-38
 -1.0485334e-37
 -1.2321997e-37
  7.3350072e-37
 -6.7904644e-37
 -2.6457744e-36
  8.1953854e-36
  0.0000000e+00
 -4.0904267e-35
  7.5913670e-35
  8.9211087e-35
 -5.3105351e-34
  4.9162869e-34
  1.9155370e-33
 -5.9334477e-33
  0.0000000e+00
  2.9614633e-32
 -5.4961392e-32
 -6.4588704e-32
  3.8448201e-31
 -3.5593849e-31
 -1.3868461e-30
  4.2958079e-30
  0.0000000e+00
 -2.1440953e-29
  3.9791972e-29
  4.6762132e-29
 -2.7836444e-28
  2.5769898e-28
  1.0040747e-27
 -3.1101590e-27
  0.0000000e+00
  1.5523221e-26
 -2.8809333e-26
 -3.3855719e-26
  2.0153547e-25
 -1.8657370e-25
 -7.2694868e-25
  2.2517508e-24
  0.0000000e+00
 -1.1238790e-23
  2.0857917e-23
  2.4511494e-23
 -1.4591140e-22
  1.3507910e-22
  5.2630984e-22
 -1.6302645e-21
  0.0000000e+00
  8.1368687e-21
 -1.5101103e-20
 -1.7746288e-20
  1.0563965e-19
 -9.7797084e-20
 -3.8104760e-19
  1.1803092e-18
  0.0000000e+00
 -5.8910817e-18
  1.0933178e-17
  1.2848288e-17
 -7.6482964e-17
  7.0804954e-17
  2.7587794e-16
 -8.5454226e-16
  0.0000000e+00
  4.2651350e-15
 -7.9156057e-15
 -9.3021427e-15
  5.5373560e-14
 -5.1262689e-14
 -1.9973524e-13
  6.1868742e-13
  0.0000000e+00
 -3.0879519e-12
  5.7308876e-12
  6.7347384e-12
 -4.0090381e-11
  3.7114116e-11
  1.4460804e-10
 -4.4792883e-10
  0.0000000e+00
  2.2356729e-09
 -4.1491547e-09
 -4.8759413e-09
  2.9025380e-08
 -2.6870569e-08
 -1.0469602e-07
  3.2429986e-07
  0.0000000e+00
 -1.6186241e-06
  3.0039823e-06
  3.5301748e-06
 -2.6014335e-05
 -3.6991058e-05
 -2.8887725e-05
 -1.4221452e-04
  1.0000000e-04
  1.3867253e-03
  3.2969960e-03
  5.4156427e-03
  7.6943498e-03
  1.0053350e-02
  1.2441692e-02
  1.4923928e-02
  1.7500000e-02
  2.0126923e-02
  2.2836902e-02
  2.5647868e-02
  2.8536780e-02
  3.1498310e-02
  3.4538923e-02
  3.7670448e-02
  4.0900000e-02
  4.4225991e-02
  4.7629116e-02
  5.1097966e-02
  5.4636817e-02
  5.8248093e-02
  6.1929695e-02
  6.5674137e-02
  6.9500000e-02
  7.3429762e-02
  7.7419758e-02
  8.1447600e-02
  8.5537738e-02
  8.9697374e-02
  9.3918725e-02
  9.8183070e-02
  1.0250000e-01
  1.0688799e-01
  1.1130992e-01
  1.1574818e-01
  1.2022600e-01
  1.2474752e-01
  1.2930694e-01
  1.3389752e-01
  1.3850000e-01
  1.4309613e-01
  1.4770917e-01
  1.5235007e-01
  1.5700092e-01
  1.6164892e-01
  1.6628737e-01
  1.7091424e-01
  1.7550000e-01
  1.8001203e-01
  1.8449091e-01
  1.8895296e-01
  1.9336200e-01
  1.9770235e-01
  2.0197160e-01
  2.0617218e-01
  2.1030000e-01
  2.1433831e-01
  2.1824297e-01
  2.2200222e-01
  2.2565177e-01
  2.2920197e-01
  2.3265009e-01
  2.3599136e-01
  2.3920000e-01
  2.4224551e-01
  2.4514250e-01
  2.4790418e-01
  2.5052675e-01
  2.5300325e-01
  2.5533000e-01
  2.5750971e-01
  2.5950000e-01
  2.6125328e-01
  2.6284121e-01
  2.6430520e-01
  2.6561220e-01
  2.6675606e-01
  2.6772865e-01
  2.6849180e-01
  2.6910000e-01
  2.6962059e-01
  2.6987791e-01
  2.6980239e-01
  2.6952897e-01
  2.6910237e-01
  2.6853564e-01
  2.6786665e-01
  2.6700000e-01
  2.6580785e-01
  2.6445066e-01
  2.6300867e-01
  2.6137367e-01
  2.5950875e-01
  2.5744275e-01
  2.5525731e-01
  2.5290000e-01
  2.5026118e-01
  2.4743656e-01
  2.4450167e-01
  2.4144058e-01
  2.3825278e-01
  2.3495815e-01
  2.3159374e-01
  2.2810000e-01
  2.2438941e-01
  2.2056602e-01
  2.1670091e-01
  2.1276365e-01
  2.0875253e-01
  2.0467343e-01
  2.0051569e-01
  1.9630000e-01
  1.9206060e-01
  1.8778250e-01
  1.8345204e-01
  1.7907354e-01
  1.7465276e-01
  1.7020235e-01
  1.6574875e-01
  1.6130000e-01
  1.5685016e-01
  1.5240008e-01
  1.4795017e-01
  1.4349886e-01
  1.3905111e-01
  1.3461262e-01
  1.3018587e-01
  1.2580000e-01
  1.2148735e-01
  1.1721025e-01
  1.1294840e-01
  1.0872487e-01
  1.0454858e-01
  1.0041931e-01
  9.6334200e-02
  9.2300000e-02
  8.8329383e-02
  8.4427954e-02
  8.0597593e-02
  7.6837690e-02
  7.3147472e-02
  6.9519145e-02
  6.5931745e-02
  6.2400000e-02
  5.8964158e-02
  5.5650096e-02
  5.2450256e-02
  4.9322212e-02
  4.6249864e-02
  4.3240047e-02
  4.0320493e-02
  3.7500000e-02
  3.4772210e-02
  3.2137299e-02
  2.9596720e-02
  2.7150812e-02
  2.4796103e-02
  2.2526218e-02
  2.0331850e-02
  1.8200000e-02
  1.6124820e-02
  1.4138404e-02
  1.2249169e-02
  1.0424669e-02
  8.6482249e-03
  6.9340890e-03
  5.3386401e-03
  3.8000000e-03
  2.2624128e-03
  1.0701151e-03
  3.9070919e-04
  4.4068422e-05
 -6.5237151e-05
 -2.2246710e-05
  1.1481959e-05
  5.0182081e-18
 -2.3004709e-06
  7.4267734e-07
  1.9061051e-07
 -2.0589600e-07
  3.4588240e-08
  2.9432667e-08
 -1.5859090e-08
 -6.9605779e-21
  3.1774521e-09
 -1.0257994e-09
 -2.6327469e-10
  2.8438729e-10
 -4.7773903e-11
 -4.0652933e-11
  2.1904862e-11
  9.5714723e-24
 -4.3887544e-12
  1.4168527e-12
  3.6363977e-13
 -3.9280087e-13
  6.5986180e-14
  5.6150567e-14
 -3.0255391e-14
 -1.3234890e-26
  6.0618270e-15
 -1.9569826e-15
 -5.0226583e-16
  5.4254367e-16
 -9.1141307e-17
 -7.7556180e-17
  4.1789294e-17
  1.8256135e-29
 -8.3727052e-18
  2.7030198e-18
  6.9373866e-19
 -7.4937114e-19
  1.2588602e-19
  1.0712200e-19
 -5.7720130e-20
 -2.5164663e-32
  1.1564532e-20
 -3.7334599e-21
 -9.5820440e-22
  1.0350450e-21
 -1.7387605e-22
 -1.4795885e-22
  7.9724089e-23
  3.4743776e-35
 -1.5973141e-23
  5.1567224e-24
  1.3234893e-24
 -1.4296229e-24
  2.4016075e-25
  2.0436344e-25
 -1.1011635e-25
 -4.8373944e-38
  2.2062392e-26
 -7.1225583e-27
 -1.8280274e-27
  1.9746212e-27
 -3.3171453e-28
 -2.8227105e-28
  1.5209646e-28
  6.6415431e-41
 -3.0481756e-29
  9.8541044e-30
  2.5440572e-30
 -2.8413944e-30
  5.6371794e-31
  8.0112479e-31
 -1.4839311e-30
 -2.8733031e-42
  6.4000718e-30
 -1.1813280e-29
 -1.3870072e-29
  8.2548422e-29
 -7.6417264e-29
 -2.9774330e-28
  9.2226967e-28
  2.0133279e-39
 -4.6031702e-27
  8.5429605e-27
  1.0039388e-26
 -5.9762216e-26
  5.5325536e-26
  2.1556535e-25
 -6.6772176e-25
  0.0000000e+00
  3.3326888e-24
 -6.1850916e-24
 -7.2685031e-24
  4.3267762e-23
 -4.0055611e-23
 -1.5606902e-22
  4.8342963e-22
  0.0000000e+00
 -2.4128621e-21
  4.4779978e-21
  5.2623862e-21
 -3.1325800e-20
  2.9000207e-20
  1.1299375e-19
 -3.5000239e-19
  0.0000000e+00
  1.7469088e-18
 -3.2420642e-18
 -3.8099603e-18
  2.2679836e-17
 -2.0996110e-17
 -8.1807320e-17
  2.5340124e-16
  0.0000000e+00
 -1.2647596e-15
  2.3472500e-15
  2.7584060e-15
 -1.6420170e-14
  1.5201155e-14
  5.9228387e-14
 -1.8346215e-13
  0.0000000e+00
  9.1568420e-13
 -1.6994058e-12
 -1.9970822e-12
  1.1888180e-11
 -1.1005615e-11
 -4.2881270e-11
  1.3282634e-10
  0.0000000e+00
 -6.6295409e-10
  1.2303674e-09
  1.4458847e-09
 -8.6070261e-09
  7.9680501e-09
  3.1045980e-08
 -9.6166089e-08
  0.0000000e+00
  4.7997785e-07
 -8.9078432e-07
 -1.0468185e-06
  6.2314750e-06
 -5.7297947e-06
 -1.4039747e-05
  1.1845224e-04
  1.0000000e-04
 -5.2640955e-04
 -1.5106984e-03
 -2.5684329e-03
 -3.6065793e-03
 -4.5615975e-03
 -5.3555668e-03
 -5.8854981e-03
 -6.4000000e-03
 -7.2420761e-03
 -8.0450419e-03
 -8.5995547e-03
 -9.1128243e-03
 -9.6482156e-03
 -1.0204992e-02
 -1.0806885e-02
 -1.1400000e-02
 -1.1906956e-02
 -1.2404878e-02
 -1.2948086e-02
 -1.3513593e-02
 -1.4099117e-02
 -1.4701335e-02
 -1.5292451e-02
 -1.5900000e-02
 -1.6580183e-02
 -1.7322839e-02
 -1.8101968e-02
 -1.8895718e-02
 -1.9702950e-02
 -2.0543843e-02
 -2.1464614e-02
 -2.2500000e-02
 -2.3665150e-02
 -2.4942986e-02
 -2.6301969e-02
 -2.7706520e-02
 -2.9153283e-02
 -3.0657252e-02
 -3.2245309e-02
 -3.4000000e-02
 -3.6000604e-02
 -3.8148779e-02
 -4.0393588e-02
 -4.2798872e-02
 -4.5395028e-02
 -4.8180139e-02
 -5.1127719e-02
 -5.4300000e-02
 -5.7782470e-02
 -6.1471600e-02
 -6.5296135e-02
 -6.9285327e-02
 -7.3445303e-02
 -7.7767797e-02
 -8.2244651e-02
 -8.6900000e-02
 -9.1757921e-02
 -9.6743753e-02
 -1.0180042e-01
 -1.0692405e-01
 -1.1209757e-01
 -1.1731419e-01
 -1.2260091e-01
 -1.2790000e-01
 -1.3311698e-01
 -1.3828474e-01
 -1.4340738e-01
 -1.4841302e-01
 -1.5325318e-01
 -1.5792425e-01
 -1.6248146e-01
 -1.6680000e-01
 -1.7067357e-01
 -1.7414844e-01
 -1.7726433e-01
 -1.7996910e-01
 -1.8220806e-01
 -1.8395369e-01
 -1.8522021e-01
 -1.8580000e-01
 -1.8541172e-01
 -1.8417884e-01
 -1.8222032e-01
 -1.7951363e-01
 -1.7601447e-01
 -1.7170256e-01
 -1.6660096e-01
 -1.6040000e-01
 -1.5271265e-01
 -1.4388104e-01
 -1.3417248e-01
 -1.2352026e-01
 -1.1186736e-01
 -9.9183316e-02
 -8.5442968e-02
 -7.0300000e-02
 -5.3372259e-02
 -3.5119263e-02
 -1.5875861e-02
  4.4540440e-03
  2.5927375e-02
  4.8561598e-02
  7.2375566e-02
  9.7700000e-02
  1.2489942e-01
  1.5351874e-01
  1.8318273e-01
  2.1388240e-01
  2.4557461e-01
  2.7822382e-01
  3.1187250e-01
  3.4660000e-01
  3.8241403e-01
  4.1895768e-01
  4.5591293e-01
  4.9313379e-01
  5.3049949e-01
  5.6798063e-01
  6.0571918e-01
  6.4360000e-01
  6.8133120e-01
  7.1877795e-01
  7.5578952e-01
  7.9214709e-01
  8.2767062e-01
  8.6230984e-01
  8.9622121e-01
  9.2900000e-01
  9.5999552e-01
  9.8938376e-01
  1.0172274e+00
  1.0431834e+00
  1.0670048e+00
  1.0886574e+00
  1.1083928e+00
  1.1255000e+00
  1.1389343e+00
  1.1493922e+00
  1.1573833e+00
  1.1626294e+00
  1.1650346e+00
  1.1647143e+00
  1.1619654e+00
  1.1563000e+00
  1.1470128e+00
  1.1350087e+00
  1.1208730e+00
  1.1042849e+00
  1.0851825e+00
  1.0637184e+00
  1.0401686e+00
  1.0143000e+00
  9.8575886e-01
  9.5531637e-01
  9.2344801e-01
  8.8991185e-01
  8.5471462e-01
  8.1806576e-01
  7.8030296e-01
  7.4140000e-01
  7.0124549e-01
  6.6055147e-01
  6.1974995e-01
  5.7867629e-01
  5.3742668e-01
  4.9608930e-01
  4.5449564e-01
  4.1340000e-01
  3.7383422e-01
  3.3500162e-01
  2.9634204e-01
  2.5816617e-01
  2.2053543e-01
  1.8391650e-01
  1.4979139e-01
  1.1680000e-01
  8.2426055e-02
  4.8728230e-02
  1.8954559e-02
 -3.9153185e-03
 -1.9188781e-02
 -2.9131723e-02
 -3.9983154e-02
 -5.3300000e-02
 -6.6936904e-02
 -8.0056661e-02
 -9.2348745e-02
 -1.0373555e-01
 -1.1419913e-01
 -1.2379972e-01
 -1.3272825e-01
 -1.4120000e-01
 -1.4944641e-01
 -1.5773878e-01
 -1.6619635e-01
 -1.7472767e-01
 -1.8323491e-01
 -1.9159652e-01
 -1.9962777e-01
 -2.0710000e-01
 -2.1385639e-01
 -2.2013259e-01
 -2.2610443e-01
 -2.3175115e-01
 -2.3711321e-01
 -2.4227183e-01
 -2.4732064e-01
 -2.5230000e-01
 -2.5717432e-01
 -2.6177658e-01
 -2.6601299e-01
 -2.6992248e-01
 -2.7351171e-01
 -2.7678724e-01
 -2.7979189e-01
 -2.8250000e-01
 -2.8487060e-01
 -2.8702599e-01
 -2.8905167e-01
 -2.9093188e-01
 -2.9264994e-01
 -2.9418507e-01
 -2.9549826e-01
 -2.9650000e-01
 -2.9712254e-01
 -2.9752998e-01
 -2.9780782e-01
 -2.9787327e-01
 -2.9770997e-01
 -2.9734808e-01
 -2.9684041e-01
 -2.9620000e-01
 -2.9540455e-01
 -2.9442358e-01
 -2.9325369e-01
 -2.9192642e-01
 -2.9045409e-01
 -2.8885016e-01
 -2.8714698e-01
 -2.8530000e-01
 -2.8324203e-01
 -2.8105902e-01
 -2.7880336e-01
 -2.7643773e-01
 -2.7395428e-01
 -2.7136324e-01
 -2.6867851e-01
 -2.6590000e-01
 -2.6302349e-01
 -2.6007222e-01
 -2.5705367e-01
 -2.5394834e-01
 -2.5075448e-01
 -2.4747590e-01
 -2.4411169e-01
 -2.4070000e-01
 -2.3727683e-01
 -2.3374980e-01
 -2.3009637e-01
 -2.2641732e-01
 -2.2274649e-01
 -2.1908337e-01
 -2.1542271e-01
 -2.1170000e-01
 -2.0785418e-01
 -2.0401583e-01
 -2.0025099e-01
 -1.9648666e-01
 -1.9270153e-01
 -1.8887700e-01
 -1.8494929e-01
 -1.8100000e-01
 -1.7717594e-01
 -1.7341812e-01
 -1.6965507e-01
 -1.6586871e-01
 -1.6205525e-01
 -1.5823548e-01
 -1.5447202e-01
 -1.5080000e-01
 -1.4720487e-01
 -1.4357823e-01
 -1.3989413e-01
 -1.3625453e-01
 -1.3269439e-01
 -1.2922070e-01
 -1.2584810e-01
 -1.2250000e-01
 -1.1908596e-01
 -1.1574200e-01
 -1.1254700e-01
 -1.0943807e-01
 -1.0639765e-01
 -1.0340367e-01
 -1.0037947e-01
 -9.7400000e-02
 -9.4609369e-02
 -9.1938642e-02
 -8.9305037e-02
 -8.6680345e-02
 -8.4054703e-02
 -8.1445375e-02
 -7.8913657e-02
 -7.6500000e-02
 -7.4196575e-02
 -7.1888018e-02
 -6.9543460e-02
 -6.7266879e-02
 -6.5093625e-02
 -6.3021809e-02
 -6.1041757e-02
 -5.9100000e-02
 -5.7140096e-02
 -5.5224465e-02
 -5.3396664e-02
 -5.1638899e-02
 -4.9946962e-02
 -4.8292790e-02
 -4.6588137e-02
 -4.4900000e-02
 -4.3368903e-02
 -4.1926378e-02
 -4.0502762e-02
 -3.9095573e-02
 -3.7702275e-02
 -3.6332410e-02
 -3.5025435e-02
 -3.3800000e-02
 -3.2643957e-02
 -3.1499964e-02
 -3.0347781e-02
 -2.9226173e-02
 -2.8147733e-02
 -2.7116262e-02
 -2.6143461e-02
 -2.5200000e-02
 -2.4244275e-02
 -2.3314959e-02
 -2.2446243e-02
 -2.1639988e-02
 -2.0896153e-02
 -2.0189772e-02
 -1.9447390e-02
 -1.8700000e-02
 -1.8033757e-02
 -1.7413460e-02
 -1.6801503e-02
 -1.6197332e-02
 -1.5601494e-02
 -1.5013422e-02
 -1.4433879e-02
 -1.3900000e-02
 -1.3446773e-02
 -1.2990916e-02
 -1.2497497e-02
 -1.2026985e-02
 -1.1597011e-02
 -1.1196952e-02
 -1.0803295e-02
 -1.0400000e-02
 -9.9897551e-03
 -9.6204908e-03
 -9.3021904e-03
 -8.9853356e-03
 -8.6518957e-03
 -8.3026256e-03
 -7.9452705e-03
 -7.6000000e-03
 -7.2897031e-03
 -7.0124710e-03
 -6.7522836e-03
 -6.4850361e-03
 -6.2020909e-03
 -5.9033311e-03
 -5.5931249e-03
 -5.3000000e-03
 -5.0503721e-03
 -4.7907981e-03
 -4.4986277e-03
 -4.2135289e-03
 -3.9485673e-03
 -3.6987811e-03
 -3.4506560e-03
 -3.2000000e-03
 -2.9498730e-03
 -2.7000340e-03
 -2.4500009e-03
 -2.2000478e-03
 -1.9499468e-03
 -1.6997868e-03
 -1.4506646e-03
 -1.2000000e-03
 -9.4667867e-04
 -7.0710180e-04
 -4.9743943e-04
 -3.2687731e-04
 -1.9730413e-04
 -1.0648328e-04
 -4.8659853e-05
  0.0000000e+00
  5.9289679e-05
  7.9859970e-05
  4.7946799e-05
  1.4222224e-05
 -1.5492311e-06
 -1.3183094e-06
  7.1033955e-07
  0.0000000e+00
 -1.4232027e-07
  4.5946262e-08
  1.1792255e-08
 -1.2737903e-08
  2.1398261e-09
  1.8208729e-09
 -9.8113385e-10
  0.0000000e+00
  1.9657533e-10
 -6.3461808e-11
 -1.6287676e-11
  1.7593822e-11
 -2.9555665e-12
 -2.5150226e-12
  1.3551598e-12
  0.0000000e+00
 -2.7151341e-13
  8.7654599e-14
  2.2496833e-14
 -2.4300905e-14
  4.0822819e-15
  3.4737947e-15
 -1.8717713e-15
  0.0000000e+00
  3.7501924e-16
 -1.2107012e-16
 -3.1073033e-17
  3.3564850e-17
 -5.6385217e-18
 -4.7980682e-18
  2.5853244e-18
  0.0000000e+00
 -5.1798336e-19
  1.6722424e-19
  4.2918635e-20
 -4.6360378e-20
  7.7880283e-21
  6.6271786e-21
 -3.5708969e-21
  0.0000000e+00
  7.1544799e-22
 -2.3097315e-22
 -5.9279996e-23
  6.4033794e-23
 -1.0756966e-23
 -9.1535791e-24
  4.9321874e-24
  0.0000000e+00
 -9.8818972e-25
  3.1902429e-25
  8.1878604e-26
 -8.8444635e-26
  1.4857716e-26
  1.2643089e-26
 -6.8124265e-27
  0.0000000e+00
  1.3649055e-27
 -4.4064213e-28
 -1.1309221e-28
  1.2216133e-28
 -2.0521746e-29
 -1.7462864e-29
  9.4094469e-30
  0.0000000e+00
 -1.8852322e-30
  6.0862289e-31
  1.5620501e-31
 -1.6873144e-31
  2.8345007e-32
  2.4120023e-32
 -1.2996498e-32
  0.0000000e+00
  2.6039169e-33
 -8.4064095e-34
 -2.1575319e-34
  2.3305492e-34
 -3.9150637e-35
 -3.3315013e-35
  1.7950999e-35
  0.0000000e+00
 -3.5965771e-36
  1.1611085e-36
  2.9800221e-37
 -3.2189968e-37
  5.4075568e-38
  4.6015299e-38
 -2.4794245e-38
  0.0000000e+00
  4.9676575e-39
 -1.6037441e-39
 -4.1160604e-40
  4.4461367e-40
 -7.4690154e-41
 -6.3557164e-41
  3.4246260e-41
  0.0000000e+00
 -6.8614184e-42
  2.2151204e-42
  5.6851772e-43
 -6.1410844e-43
  1.0316339e-43
  8.7786306e-44
 -4.7301554e-44
  0.0000000e+00
  9.4771154e-45
 -3.0595644e-45
 -7.8524699e-46
  8.4821785e-46
 -1.4249129e-46
 -1.2125259e-46
  6.5335467e-47
  0.0000000e+00
 -1.3098470e-47
  4.2417123e-48
  1.1031492e-48
 -1.2820087e-48
  2.9904783e-49
  5.6582036e-49
 -1.3241283e-48
  0.0000000e+00
  6.1765812e-48
 -1.1435315e-47
 -1.3433020e-47
  7.9956445e-47
 -7.4019342e-47
 -2.8840136e-46
  8.9333343e-46
  0.0000000e+00
 -4.4587463e-45
  8.2749263e-45
  9.7244036e-45
 -5.7887184e-44
  5.3589704e-44
  2.0880202e-43
 -6.4677208e-43
  0.0000000e+00
  3.2281262e-42
 -5.9910352e-42
 -7.0404548e-42
  4.1910242e-41
 -3.8798872e-41
 -1.5117237e-40
  4.6826209e-40
  0.0000000e+00
 -2.3371589e-39
  4.3375012e-39
  5.0972795e-39
 -3.0342957e-38
  2.8090330e-38
  1.0944859e-37
 -3.3902111e-37
  0.0000000e+00
  1.6920998e-36
 -3.1403449e-36
 -3.6904233e-36
  2.1968259e-35
 -2.0337360e-35
 -7.9240626e-35
  2.4545081e-34
  0.0000000e+00
 -1.2250779e-33
  2.2736054e-33
  2.6718614e-33
 -1.5904989e-32
  1.4724220e-32
  5.7370104e-32
 -1.7770605e-31
  0.0000000e+00
  8.8695472e-31
 -1.6460871e-30
 -1.9344240e-30
  1.1515190e-29
 -1.0660315e-29
 -4.1535876e-29
  1.2865893e-28
  0.0000000e+00
 -6.4215400e-28
  1.1917648e-27
  1.4005203e-27
 -8.3369818e-27
  7.7180535e-27
  3.0071917e-26
 -9.3148891e-26
 -4.0670224e-37
  4.6491861e-25
 -8.6283608e-25
 -1.0139747e-24
  6.0359633e-24
 -5.5878601e-24
 -2.1772026e-23
  6.7439668e-23
  2.9447469e-34
 -3.3660043e-22
  6.2469213e-22
  7.3411632e-22
 -4.3700291e-21
  4.0456030e-21
  1.5762917e-20
 -4.8826227e-20
 -2.1316994e-31
  2.4369825e-19
 -4.5227624e-19
 -5.3149920e-19
  3.1638950e-18
 -2.9290110e-18
 -1.1412330e-17
  3.5350121e-17
  1.5433906e-28
 -1.7643719e-16
  3.2744737e-16
  3.8480469e-16
 -2.2906556e-15
  2.1205999e-15
  8.2625112e-15
 -2.5593439e-14
 -1.1173142e-25
  1.2774028e-13
 -2.3707144e-13
 -2.7859806e-13
  1.6584315e-12
 -1.5353114e-12
 -5.9820467e-12
  1.8529614e-11
  8.0907528e-23
 -9.2483789e-11
  1.7163940e-10
  2.0170461e-10
 -1.2007021e-09
  1.1115633e-09
  4.3309936e-09
 -1.3415415e-08
 -5.8574022e-20
  6.6958136e-08
 -1.2426669e-07
 -1.4603386e-07
  8.6930668e-07
 -8.0477032e-07
 -3.1356334e-06
  9.7127420e-06
  4.2402193e-17
 -4.8477598e-05
  1.0028141e-04
  5.4787675e-04
  1.1506232e-03
  1.8452698e-03
  2.5892567e-03
  3.2968945e-03
  4.0000000e-03
  4.7883388e-03
  5.6038833e-03
  6.4011286e-03
  7.1979586e-03
  8.0011823e-03
  8.8206470e-03
  9.6863516e-03
  1.0600000e-02
  1.1542759e-02
  1.2509458e-02
  1.3499256e-02
  1.4512356e-02
  1.5549338e-02
  1.6609831e-02
  1.7691563e-02
  1.8800000e-02
  1.9942362e-02
  2.1108552e-02
  2.2297874e-02
  2.3526017e-02
  2.4797811e-02
  2.6108261e-02
  2.7443292e-02
  2.8800000e-02
  3.0186890e-02
  3.1619442e-02
  3.3099727e-02
  3.4611675e-02
  3.6149652e-02
  3.7710838e-02
  3.9288595e-02
  4.0900000e-02
  4.2576549e-02
  4.4331987e-02
  4.6152096e-02
  4.7996208e-02
  4.9852247e-02
  5.1724421e-02
  5.3624930e-02
  5.5600000e-02
  5.7688557e-02
  5.9800742e-02
  6.1896908e-02
  6.4038803e-02
  6.6246784e-02
  6.8508435e-02
  7.0789770e-02
  7.3100000e-02
  7.5477011e-02
  7.7930725e-02
  8.0450534e-02
  8.3010611e-02
  8.5600125e-02
  8.8228857e-02
  9.0932992e-02
  9.3700000e-02
  9.6490186e-02
  9.9316409e-02
  1.0219676e-01
  1.0513853e-01
  1.0814731e-01
  1.1121067e-01
  1.1428271e-01
  1.1740000e-01
  1.2063191e-01
  1.2391195e-01
  1.2719878e-01
  1.3052484e-01
  1.3389823e-01
  1.3731770e-01
  1.4078937e-01
  1.4430000e-01
  1.4783385e-01
  1.5142748e-01
  1.5509854e-01
  1.5882497e-01
  1.6259841e-01
  1.6641859e-01
  1.7028648e-01
  1.7420000e-01
  1.7814845e-01
  1.8209756e-01
  1.8604611e-01
  1.9003958e-01
  1.9409677e-01
  1.9821713e-01
  2.0238749e-01
  2.0660000e-01
  2.1084696e-01
  2.1510010e-01
  2.1934904e-01
  2.2361215e-01
  2.2789977e-01
  2.3221995e-01
  2.3658507e-01
  2.4100000e-01
  2.4545262e-01
  2.4988907e-01
  2.5429707e-01
  2.5872719e-01
  2.6319718e-01
  2.6768961e-01
  2.7215088e-01
  2.7660000e-01
  2.8109378e-01
  2.8560192e-01
  2.9010039e-01
  2.9460021e-01
  2.9909934e-01
  3.0358884e-01
  3.0805980e-01
  3.1250000e-01
  3.1690359e-01
  3.2129973e-01
  3.2570091e-01
  3.3008787e-01
  3.3445028e-01
  3.3878856e-01
  3.4311349e-01
  3.4740000e-01
  3.5161278e-01
  3.5578970e-01
  3.5995159e-01
  3.6407514e-01
  3.6815142e-01
  3.7218069e-01
  3.7616579e-01
  3.8010000e-01
  3.8397068e-01
  3.8777194e-01
  3.9150228e-01
  3.9516309e-01
  3.9875185e-01
  4.0228649e-01
  4.0582578e-01
  4.0930000e-01
  4.1258698e-01
  4.1576669e-01
  4.1890095e-01
  4.2196440e-01
  4.2495162e-01
  4.2786149e-01
  4.3067778e-01
  4.3340000e-01
  4.3603336e-01
  4.3855162e-01
  4.4095120e-01
  4.4326487e-01
  4.4550078e-01
  4.4765794e-01
  4.4973898e-01
  4.5170000e-01
  4.5348821e-01
  4.5515916e-01
  4.5675218e-01
  4.5825158e-01
  4.5965230e-01
  4.6095147e-01
  4.6213698e-01
  4.6320000e-01
  4.6413696e-01
  4.6495151e-01
  4.6565234e-01
  4.6625635e-01
  4.6680884e-01
  4.6726468e-01
  4.6739308e-01
  4.6760000e-01
  4.6857204e-01
  4.7007802e-01
  4.7177453e-01
  4.7348043e-01
  4.7506047e-01
  4.7648160e-01
  4.7788752e-01
  4.7920000e-01
  4.8023977e-01
  4.8117802e-01
  4.8210636e-01
  4.8290971e-01
  4.8355793e-01
  4.8406868e-01
  4.8446796e-01
  4.8480000e-01
  4.8506980e-01
  4.8507823e-01
  4.8479146e-01
  4.8443619e-01
  4.8409223e-01
  4.8371480e-01
  4.8315610e-01
  4.8240000e-01
  4.8152807e-01
  4.8056341e-01
  4.7950435e-01
  4.7833752e-01
  4.7705356e-01
  4.7566806e-01
  4.7423900e-01
  4.7270000e-01
  4.7093980e-01
  4.6906680e-01
  4.6715211e-01
  4.6515109e-01
  4.6305295e-01
  4.6085412e-01
  4.5852870e-01
  4.5610000e-01
  4.5361747e-01
  4.5107396e-01
  4.4845390e-01
  4.4574945e-01
  4.4295303e-01
  4.4006998e-01
  4.3713024e-01
  4.3410000e-01
  4.3092548e-01
  4.2767853e-01
  4.2440194e-01
  4.2106287e-01
  4.1765238e-01
  4.1417225e-01
  4.1061974e-01
  4.0700000e-01
  4.0332042e-01
  3.9957116e-01
  3.9575113e-01
  3.9187525e-01
  3.8795168e-01
  3.8398196e-01
  3.7996170e-01
  3.7590000e-01
  3.7181081e-01
  3.6768338e-01
  3.6350331e-01
  3.5926065e-01
  3.5495353e-01
  3.5059264e-01
  3.4620700e-01
  3.4180000e-01
  3.3735856e-01
  3.3289014e-01
  3.2840066e-01
  3.2388760e-01
  3.1935076e-01
  3.1478232e-01
  3.1015775e-01
  3.0550000e-01
  3.0085289e-01
  2.9619104e-01
  2.9149986e-01
  2.8679992e-01
  2.8210016e-01
  2.7739240e-01
  2.7264851e-01
  2.6790000e-01
  2.6319930e-01
  2.5849114e-01
  2.5374870e-01
  2.4901351e-01
  2.4429852e-01
  2.3959853e-01
  2.3490147e-01
  2.3020000e-01
  2.2549579e-01
  2.2080854e-01
  2.1614909e-01
  2.1151208e-01
  2.0689980e-01
  2.0231177e-01
  1.9773544e-01
  1.9320000e-01
  1.8874254e-01
  1.8429948e-01
  1.7984661e-01
  1.7543897e-01
  1.7109690e-01
  1.6680908e-01
  1.6253765e-01
  1.5830000e-01
  1.5413770e-01
  1.5000900e-01
  1.4589681e-01
  1.4183951e-01
  1.3784619e-01
  1.3391440e-01
  1.3004624e-01
  1.2620000e-01
  1.2233343e-01
  1.1853677e-01
  1.1485002e-01
  1.1121083e-01
  1.0760037e-01
  1.0401357e-01
  1.0043016e-01
  9.6900000e-02
  9.3488143e-02
  9.0099863e-02
  8.6695556e-02
  8.3352283e-02
  8.0095423e-02
  7.6907513e-02
  7.3739493e-02
  7.0600000e-02
  6.7531555e-02
  6.4521151e-02
  6.1550150e-02
  5.8611314e-02
  5.5699662e-02
  5.2818920e-02
  4.9988700e-02
  4.7200000e-02
  4.4434065e-02
  4.1727274e-02
  3.9098343e-02
  3.6526113e-02
  3.3997314e-02
  3.1506053e-02
  2.9050330e-02
  2.6600000e-02
  2.4132034e-02
  2.1738138e-02
  1.9451396e-02
  1.7197957e-02
  1.4951113e-02
  1.2728587e-02
  1.0586775e-02
  8.5000000e-03
  6.3988073e-03
  4.3112095e-03
  2.4094744e-03
  9.9327966e-04
  1.5986817e-04
 -1.4569573e-04
 -1.0995807e-04
  0.0000000e+00
 -3.9249310e-05
 -8.6329744e-05
 -4.9607287e-05
 -1.2428577e-05
  1.2479184e-06
  1.0619091e-06
 -5.7218436e-07
  0.0000000e+00
  1.1464015e-07
 -3.7010092e-08
 -9.4987584e-09
  1.0260485e-08
 -1.7236475e-09
 -1.4667281e-09
  7.9031139e-10
  0.0000000e+00
 -1.5834305e-10
  5.1119009e-11
  1.3119857e-11
 -1.4171968e-11
  2.3807331e-12
  2.0258714e-12
 -1.0915924e-12
  0.0000000e+00
  2.1870629e-13
 -7.0606501e-14
 -1.8121384e-14
  1.9574579e-14
 -3.2883117e-15
 -2.7981703e-15
  1.5077272e-15
  0.0000000e+00
 -3.0208108e-16
  9.7522977e-17
  2.5029584e-17
 -2.7036763e-17
  4.5418757e-18
  3.8648834e-18
 -2.0825001e-18
  0.0000000e+00
  4.1723986e-19
 -1.3470050e-19
 -3.4571314e-20
  3.7343666e-20
 -6.2733209e-21
 -5.3382470e-21
  2.8763868e-21
  0.0000000e+00
 -5.7629925e-22
  1.8605077e-22
  4.7750525e-23
 -5.1579748e-23
  8.6648244e-24
  7.3732833e-24
 -3.9729176e-24
  0.0000000e+00
  7.9599496e-25
 -2.5697669e-25
 -6.5953890e-26
  7.1242882e-26
 -1.1968012e-26
 -1.0184112e-26
  5.4874657e-27
  0.0000000e+00
 -1.0994426e-27
  3.5494086e-28
  9.1096707e-29
 -9.8401958e-29
  1.6530435e-29
  1.4066480e-29
 -7.5793869e-30
  0.0000000e+00
  1.5185701e-30
 -4.9025075e-31
 -1.2582442e-31
  1.3591457e-31
 -2.2832137e-32
 -1.9428878e-32
  1.0468786e-32
  0.0000000e+00
 -2.0974765e-33
  6.7714321e-34
  1.7379097e-34
 -1.8772766e-34
  3.1536160e-35
  2.6835517e-35
 -1.4459677e-35
  0.0000000e+00
  2.8970725e-36
 -9.3528246e-37
 -2.4004323e-37
  2.5929284e-37
 -4.3558316e-38
 -3.7065702e-38
  1.9971968e-38
  0.0000000e+00
 -4.0014890e-39
  1.2918291e-39
  3.3155206e-40
 -3.5813997e-40
  6.0163534e-41
  5.1195819e-41
 -2.7585644e-41
  0.0000000e+00
  5.5269291e-42
 -1.7842977e-42
 -4.5794570e-43
  4.9466941e-43
 -8.3098963e-44
 -7.0712592e-44
  3.8101791e-44
  0.0000000e+00
 -7.6338945e-45
  2.4645043e-45
  6.3252290e-46
 -6.8324634e-46
  1.1477779e-46
  9.7669513e-47
 -5.2626884e-47
  0.0000000e+00
  1.0544073e-47
 -3.4040179e-48
 -8.7365207e-49
  9.4371222e-49
 -1.5853316e-49
 -1.3490290e-49
  7.2689204e-50
  0.0000000e+00
 -1.4563665e-50
  4.7016912e-51
  1.2067041e-51
 -1.3034724e-51
  2.1896888e-52
  1.8633033e-52
 -1.0039965e-52
  0.0000000e+00
  2.0115598e-53
 -6.4940610e-54
 -1.6667215e-54
  1.8003797e-54
 -3.0244378e-55
 -2.5736282e-55
  1.3867381e-55
  0.0000000e+00
 -2.7784028e-56
  8.9697146e-57
  2.3021059e-57
 -2.4867170e-57
  4.1774082e-58
  3.5547419e-58
 -1.9153877e-58
  0.0000000e+00
  3.8375802e-59
 -1.2389132e-59
 -3.1797104e-60
  3.4346986e-60
 -5.7699118e-61
 -4.9098738e-61
  2.6455682e-61
  0.0000000e+00
 -5.3005352e-62
  1.7112094e-62
  4.3918735e-63
 -4.7440678e-63
  7.9695067e-64
  6.7816066e-64
 -3.6541067e-64
  0.0000000e+00
  7.3211952e-65
 -2.3635534e-65
 -6.0661352e-66
  6.5525924e-66
 -1.1007627e-66
 -9.3668779e-67
  5.0471184e-67
  0.0000000e+00
 -1.0112167e-67
  3.2645827e-68
  8.3786558e-69
 -9.0505592e-69
  1.5203934e-69
  1.2937701e-69
 -6.9711712e-70
  0.0000000e+00
  1.3967109e-70
 -4.5091007e-71
 -1.1572751e-71
  1.2500796e-71
 -2.0999948e-72
 -1.7869787e-72
  9.6287079e-73
  0.0000000e+00
 -1.9291623e-73
  6.2280516e-74
  1.5984493e-74
 -1.7266326e-74
  2.9005509e-75
  2.4682074e-75
 -1.3299346e-75
  0.0000000e+00
  2.6645940e-76
 -8.6022976e-77
 -2.2078072e-77
  2.3848562e-77
 -4.0062934e-78
 -3.4091327e-78
  1.8369297e-78
  0.0000000e+00
 -3.6803854e-79
  1.1881649e-79
  3.0494632e-80
 -3.2940066e-80
  5.5335650e-81
  4.7087558e-81
 -2.5372006e-81
  0.0000000e+00
  5.0834150e-82
 -1.6411149e-82
 -4.2119737e-83
  4.5497411e-83
 -7.6430560e-84
 -6.5038029e-84
  3.5043781e-84
  0.0000000e+00
 -7.0188468e-85
  2.2621760e-85
  5.7640477e-86
 -5.9650765e-86
  7.6025469e-87
 -2.5272281e-87
  3.0813580e-86
  0.0000000e+00
 -1.7698389e-85
  3.2994873e-85
  3.8803177e-85
 -2.3102573e-84
  2.1388121e-84
  8.3335160e-84
 -2.5813410e-83
  0.0000000e+00
  1.2883822e-82
 -2.3910910e-82
 -2.8099264e-82
  1.6726859e-81
 -1.5485076e-81
 -6.0334631e-81
  1.8688878e-80
  0.0000000e+00
 -9.3278698e-80
  1.7311466e-79
  2.0343829e-79
 -1.2110223e-78
  1.1211173e-78
  4.3682189e-78
 -1.3530722e-77
  0.0000000e+00
  6.7533648e-77
 -1.2533477e-76
 -1.4728904e-76
  8.7677847e-76
 -8.1168741e-76
 -3.1625845e-75
  9.7962241e-75
  0.0000000e+00
 -4.8894268e-74
  9.0742203e-74
  1.0663706e-73
 -6.3478640e-73
  5.8766056e-73
  2.2897068e-72
 -7.0924527e-72
  0.0000000e+00
  3.5399383e-71
 -6.5697230e-71
 -7.7205084e-71
  4.5958448e-70
 -4.2546544e-70
 -1.6577446e-69
  5.1349260e-69
  0.0000000e+00
 -2.5629104e-68
  4.7564704e-68
  5.5896374e-68
 -3.3273853e-67
  3.0803639e-67
  1.2002048e-66
 -3.7176793e-66
  0.0000000e+00
  1.8555436e-65
 -3.4436780e-65
 -4.0468898e-65
  2.4090223e-64
 -2.2301792e-64
 -8.6894659e-64
  2.6915947e-63
  0.0000000e+00
 -1.3434110e-62
  2.4932181e-62
  2.9299426e-62
 -1.7441288e-61
  1.6146467e-61
  6.2911613e-61
 -1.9487108e-60
  0.0000000e+00
  9.7262771e-60
 -1.8050865e-59
 -2.1212744e-59
  1.2627469e-58
 -1.1690019e-58
 -4.5547921e-58
  1.4108640e-57
  0.0000000e+00
 -7.0418112e-57
  1.3068801e-56
  1.5357997e-56
 -9.1422699e-56
  8.4635580e-56
  3.2976632e-55
 -1.0214636e-54
  0.0000000e+00
  5.0982616e-54
 -9.4617939e-54
 -1.1119169e-53
  6.6189908e-53
 -6.1276043e-53
 -2.3875036e-52
  7.3953820e-52
  0.0000000e+00
 -3.6911343e-51
  6.8503257e-51
  8.0502629e-51
 -4.7921402e-50
  4.4363770e-50
  1.7285493e-49
 -5.3542464e-49
  0.0000000e+00
  2.6723762e-48
 -4.9596263e-48
 -5.8283792e-48
  3.4695029e-47
 -3.2119308e-47
 -1.2514673e-46
  3.8764670e-46
  0.0000000e+00
 -1.9347966e-45
  3.5907626e-45
  4.2197385e-45
 -2.5119153e-44
  2.3254335e-44
  9.0606061e-44
 -2.8065567e-43
  0.0000000e+00
  1.4007901e-42
 -2.5997072e-42
 -3.0550848e-42
  1.8186232e-41
 -1.6836106e-41
 -6.5598663e-41
  2.0319432e-40
  0.0000000e+00
 -1.0141701e-39
  1.8821844e-39
  2.2118772e-39
 -1.3166807e-38
  1.2189318e-38
  4.7493341e-38
 -1.4711241e-37
  0.0000000e+00
  7.3425775e-37
 -1.3626989e-36
 -1.6013960e-36
  9.5327500e-36
 -8.8250492e-36
 -3.4385113e-35
  1.0650918e-34
  4.6495083e-46
 -5.3160160e-34
  9.8659213e-34
  1.1594085e-33
 -6.9016978e-33
  6.3893235e-33
  2.4894775e-32
 -7.7112499e-32
 -3.3667036e-43
  3.8487882e-31
 -7.1429134e-31
 -8.3941017e-31
  4.9968197e-30
 -4.6258614e-30
 -1.8023782e-29
  5.5829343e-29
  2.4378651e-40
 -2.7865174e-28
  5.1714594e-28
  6.0773180e-28
 -3.6176905e-27
  3.3491172e-27
  1.3049194e-26
 -4.0420367e-26
 -1.7645581e-37
  2.0174347e-25
 -3.7441295e-25
 -4.3999699e-25
  2.6192030e-24
 -2.4247562e-24
 -9.4475981e-24
  2.9264290e-23
  1.2777582e-34
 -1.4606199e-22
  2.7107446e-22
  3.1855721e-22
 -1.8962993e-21
  1.7555202e-21
  6.8400480e-21
 -2.1187305e-20
 -9.2503802e-32
  1.0574868e-19
 -1.9625753e-19
 -2.3063498e-19
  1.3729181e-18
 -1.2709942e-18
 -4.9521853e-18
  1.5339580e-17
  6.6981233e-29
 -7.6561900e-17
  1.4209018e-16
  1.6697941e-16
 -9.9399080e-16
  9.2019803e-16
  3.5853753e-15
 -1.1105835e-14
 -4.8477954e-26
  5.5430710e-14
 -1.0287310e-13
 -1.2089286e-13
  7.1964797e-13
 -6.6622210e-13
 -2.5958068e-12
  8.0406089e-12
  3.5104222e-23
 -4.0131757e-11
  7.4479979e-11
  8.7526264e-11
 -5.2102413e-10
  4.8234388e-10
  1.8793605e-09
 -5.8213898e-09
 -2.5421830e-20
  2.9055337e-08
 -5.3923402e-08
 -6.3368894e-08
  3.7722075e-07
 -3.4921631e-07
 -1.3606544e-06
  4.2146781e-06
  1.8404722e-17
 -4.0567274e-05
 -1.0689703e-04
 -3.9316321e-05
  4.7689270e-04
  1.5647071e-03
  3.2188619e-03
  5.3427195e-03
  7.7000000e-03
  1.0038646e-02
  1.2434130e-02
  1.4948283e-02
  1.7524311e-02
  2.0149502e-02
  2.2839702e-02
  2.5620796e-02
  2.8500000e-02
  3.1471469e-02
  3.4538626e-02
  3.7698270e-02
  4.0936600e-02
  4.4248066e-02
  4.7629436e-02
  5.1075051e-02
  5.4600000e-02
  5.8225093e-02
  6.1929368e-02
  6.5697989e-02
  6.9537057e-02
  7.3447769e-02
  7.7420107e-02
  8.1428905e-02
  8.5500000e-02
  8.9678191e-02
  9.3921248e-02
  9.8199076e-02
  1.0252433e-01
  1.0689849e-01
  1.1131033e-01
  1.1573731e-01
  1.2020000e-01
  1.2473585e-01
  1.2931267e-01
  1.3390117e-01
  1.3849847e-01
  1.4310058e-01
  1.4770995e-01
  1.5234458e-01
  1.5700000e-01
  1.6165437e-01
  1.6629240e-01
  1.7090226e-01
  1.7547453e-01
  1.8000145e-01
  1.8448872e-01
  1.8896616e-01
  1.9340000e-01
  1.9772678e-01
  2.0196985e-01
  2.0615162e-01
  2.1026458e-01
  2.1430068e-01
  2.1824078e-01
  2.2204234e-01
  2.2570000e-01
  2.2923533e-01
  2.3265293e-01
  2.3595370e-01
  2.3913870e-01
  2.4220276e-01
  2.4514039e-01
  2.4794963e-01
  2.5060000e-01
  2.5305374e-01
  2.5533287e-01
  2.5745504e-01
  2.5941327e-01
  2.6120510e-01
  2.6284144e-01
  2.6435214e-01
  2.6570000e-01
  2.6681587e-01
  2.6771760e-01
  2.6844958e-01
  2.6905698e-01
  2.6954853e-01
  2.6987153e-01
  2.6988417e-01
  2.6960000e-01
  2.6914118e-01
  2.6854688e-01
  2.6780861e-01
  2.6688631e-01
  2.6575703e-01
  2.6444790e-01
  2.6306378e-01
  2.6150000e-01
  2.5957019e-01
  2.5743671e-01
  2.5520510e-01
  2.5280070e-01
  2.5020679e-01
  2.4744442e-01
  2.4454548e-01
  2.4150000e-01
  2.3828556e-01
  2.3496218e-01
  2.3155535e-01
  2.2802320e-01
  2.2435618e-01
  2.2057425e-01
  2.1672275e-01
  2.1280000e-01
  2.0877661e-01
  2.0466807e-01
  2.0049912e-01
  1.9628999e-01
  1.9204960e-01
  1.8777853e-01
  1.8346896e-01
  1.7910000e-01
  1.7465842e-01
  1.7019728e-01
  1.6574929e-01
  1.6130081e-01
  1.5684982e-01
  1.5239967e-01
  1.4795074e-01
  1.4350000e-01
  1.3904659e-01
  1.3460724e-01
  1.3019760e-01
  1.2582593e-01
  1.2149818e-01
  1.1720989e-01
  1.1293812e-01
  1.0870000e-01
  1.0453237e-01
  1.0042002e-01
  9.6348895e-02
  9.2323684e-02
  8.8349459e-02
  8.4430854e-02
  8.0573521e-02
  7.6800000e-02
  7.3129834e-02
  6.9519816e-02
  6.5947706e-02
  6.2437058e-02
  5.8998129e-02
  5.5646529e-02
  5.2421833e-02
  4.9300000e-02
  4.6227310e-02
  4.3236829e-02
  4.0347908e-02
  3.7536374e-02
  3.4798714e-02
  3.2140518e-02
  2.9565494e-02
  2.7100000e-02
  2.4770264e-02
  2.2531948e-02
  2.0349786e-02
  1.8223037e-02
  1.6149352e-02
  1.4138224e-02
  1.2226017e-02
  1.0400000e-02
  8.6252276e-03
  6.9394875e-03
  5.3507985e-03
  3.8144822e-03
  2.3583225e-03
  1.0977669e-03
  2.5605631e-04
 -1.0000000e-04
 -8.3851490e-05
  2.8693414e-06
  2.8628745e-06
 -3.1346499e-06
  5.2658634e-07
  4.4809567e-07
 -2.4144564e-07
 -2.1128932e-19
  4.8374906e-08
 -1.5617214e-08
 -4.0082079e-09
  4.3296352e-09
 -7.2733059e-10
 -6.1891785e-10
  3.3348910e-10
  2.9171815e-22
 -6.6816297e-11
  2.1570779e-11
  5.5362093e-12
 -5.9801705e-12
  1.0046022e-12
  8.5486054e-13
 -4.6062118e-13
 -4.0267152e-25
  9.2287878e-14
 -2.9793950e-14
 -7.6467125e-15
  8.2599197e-15
 -1.3875747e-15
 -1.1807489e-15
  6.3621831e-16
  5.5640821e-28
 -1.2746969e-16
  4.1151943e-17
  1.0561778e-17
 -1.1408751e-17
  1.9165433e-18
  1.6308717e-18
 -8.7875625e-19
 -7.6866607e-31
  1.7606344e-19
 -5.6839809e-20
 -1.4588119e-20
  1.5757973e-20
 -2.6471643e-21
 -2.2525895e-21
  1.2137540e-21
  1.0612644e-33
 -2.4318201e-22
  7.8508173e-23
  2.0149374e-23
 -2.1765198e-23
  3.6563113e-24
  3.1113174e-24
 -1.6764591e-24
 -1.4649105e-36
  3.3588740e-25
 -1.0843691e-25
 -2.7830680e-26
  3.0062485e-26
 -5.0501633e-27
 -4.2974080e-27
  2.3155557e-27
  2.0242013e-39
 -4.6393414e-28
  1.4977574e-28
  3.8441081e-29
 -4.1527863e-29
  6.9800197e-30
  5.9537471e-30
 -3.2543200e-30
 -3.0420508e-42
  9.2046038e-31
 -7.2590153e-31
 -6.6303971e-31
  3.6882194e-30
 -3.3709503e-30
 -1.3104921e-29
  4.0572008e-29
  1.7716904e-40
 -2.0247917e-28
  3.7577696e-28
  4.4159967e-28
 -2.6287430e-27
  2.4335880e-27
  9.4820093e-27
 -2.9370880e-26
 -1.2826994e-37
  1.4659400e-25
 -2.7206180e-25
 -3.1971750e-25
  1.9032062e-24
 -1.7619143e-24
 -6.8649616e-24
  2.1264476e-23
  9.2849083e-35
 -1.0613385e-22
  1.9697236e-22
  2.3147503e-22
 -1.3779187e-21
  1.2756235e-21
  4.9702227e-21
 -1.5395451e-20
 -6.7215880e-32
  7.6840763e-20
 -1.4260772e-19
 -1.6758760e-19
  9.9761123e-19
 -9.2354969e-19
 -3.5984344e-18
  1.1146286e-17
  4.8659465e-29
 -5.5632606e-17
  1.0324779e-16
  1.2133319e-16
 -7.2226915e-16
  6.6864870e-16
  2.6052615e-15
 -8.0698954e-15
 -3.5237894e-26
  4.0277930e-14
 -7.4751259e-14
 -8.7845062e-14
  5.2292187e-13
 -4.8410073e-13
 -1.8862058e-12
  5.8425931e-12
  2.5503633e-23
 -2.9161166e-11
  5.4119808e-11
  6.3599704e-11
 -3.7859471e-10
  3.5048826e-10
  1.3656104e-09
 -4.2300293e-09
 -1.8466674e-20
  2.1112644e-08
 -3.9182666e-08
 -4.6046098e-08
  2.7410205e-07
 -2.5375302e-07
 -9.8870001e-07
  3.0625354e-06
  1.3371249e-17
 -1.5285525e-05
  2.9305696e-05
  7.3532624e-05
 -1.1844950e-04
 -6.2737692e-04
 -1.4491826e-03
 -2.5465683e-03
 -3.7000000e-03
 -4.6231449e-03
 -5.3125975e-03
 -5.8842531e-03
 -6.5028330e-03
 -7.2369451e-03
 -8.0249037e-03
 -8.6337265e-03
 -9.1000000e-03
 -9.6313403e-03
 -1.0216222e-02
 -1.0804415e-02
 -1.1370450e-02
 -1.1903922e-02
 -1.2413967e-02
 -1.2938562e-02
 -1.3500000e-02
 -1.4097443e-02
 -1.4698820e-02
 -1.5297467e-02
 -1.5926640e-02
 -1.6597536e-02
 -1.7315655e-02
 -1.8095226e-02
 -1.8900000e-02
 -1.9685581e-02
 -2.0532962e-02
 -2.1495584e-02
 -2.2552181e-02
 -2.3695780e-02
 -2.4933859e-02
 -2.6282706e-02
 -2.7700000e-02
 -2.9129205e-02
 -3.0640398e-02
 -3.2292384e-02
 -3.4089269e-02
 -3.6044588e-02
 -3.8150470e-02
 -4.0346942e-02
 -4.2700000e-02
 -4.5331526e-02
 -4.8177948e-02
 -5.1193397e-02
 -5.4412301e-02
 -5.7842642e-02
 -6.1466237e-02
 -6.5243183e-02
 -6.9200000e-02
 -7.3391135e-02
 -7.7769515e-02
 -8.2296392e-02
 -8.6975115e-02
 -9.1794069e-02
 -9.6734118e-02
 -1.0177695e-01
 -1.0690000e-01
 -1.1208246e-01
 -1.1732343e-01
 -1.2260359e-01
 -1.2787478e-01
 -1.3309993e-01
 -1.3827365e-01
 -1.4343850e-01
 -1.4850000e-01
 -1.5330879e-01
 -1.5793649e-01
 -1.6241180e-01
 -1.6663958e-01
 -1.7055636e-01
 -1.7413728e-01
 -1.7739388e-01
 -1.8020000e-01
 -1.8237724e-01
 -1.8397641e-01
 -1.8502373e-01
 -1.8544084e-01
 -1.8516797e-01
 -1.8417574e-01
 -1.8246700e-01
 -1.7990000e-01
 -1.7628962e-01
 -1.7173393e-01
 -1.6628539e-01
 -1.5985082e-01
 -1.5238274e-01
 -1.4389705e-01
 -1.3448018e-01
 -1.2400000e-01
 -1.1222385e-01
 -9.9218729e-02
 -8.5041017e-02
 -6.9638886e-02
 -5.2990553e-02
 -3.5141386e-02
 -1.6228846e-02
  3.9000000e-03
  2.5528972e-02
  4.8533605e-02
  7.2808234e-02
  9.8399254e-02
  1.2530489e-01
  1.5347701e-01
  1.8283099e-01
  2.1340000e-01
  2.4525408e-01
  2.7823350e-01
  3.1218125e-01
  3.4701433e-01
  3.8261523e-01
  4.1888682e-01
  4.5580127e-01
  4.9310000e-01
  5.3045406e-01
  5.6798924e-01
  6.0575585e-01
  6.4356105e-01
  6.8123835e-01
  7.1870275e-01
  7.5597537e-01
  7.9260000e-01
  8.2796419e-01
  8.6234000e-01
  8.9589144e-01
  9.2835808e-01
  9.5951891e-01
  9.8929750e-01
  1.0178115e+00
  1.0443000e+00
  1.0677223e+00
  1.0886950e+00
  1.1076309e+00
  1.1241577e+00
  1.1380677e+00
  1.1493699e+00
  1.1582762e+00
  1.1641000e+00
  1.1659165e+00
  1.1646872e+00
  1.1611158e+00
  1.1549782e+00
  1.1462222e+00
  1.1350074e+00
  1.1216658e+00
  1.1056000e+00
  1.0859408e+00
  1.0636549e+00
  1.0394896e+00
  1.0133273e+00
  9.8520548e-01
  9.5532582e-01
  9.2399366e-01
  8.9080000e-01
  8.5515602e-01
  8.1798572e-01
  7.7996003e-01
  7.4095811e-01
  7.0108782e-01
  6.6061012e-01
  6.1982740e-01
  5.7880000e-01
  5.3745555e-01
  4.9595820e-01
  4.5464056e-01
  4.1394143e-01
  3.7404924e-01
  3.3492173e-01
  2.9626957e-01
  2.5790000e-01
  2.2003169e-01
  1.8408421e-01
  1.5010378e-01
  1.1624890e-01
  8.2741919e-02
  4.9955229e-02
  1.6941482e-02
 -9.2000000e-03
 -2.0166795e-02
 -2.7997465e-02
 -4.0488267e-02
 -5.3704977e-02
 -6.6724688e-02
 -7.9907934e-02
 -9.2658337e-02
 -1.0430000e-01
 -1.1444745e-01
 -1.2371004e-01
 -1.3258713e-01
 -1.4112555e-01
 -1.4945930e-01
 -1.5775916e-01
 -1.6615480e-01
 -1.7470000e-01
 -1.8332052e-01
 -1.9165245e-01
 -1.9947295e-01
 -2.0682888e-01
 -2.1371960e-01
 -2.2015363e-01
 -2.2621844e-01
 -2.3190000e-01
 -2.3716553e-01
 -2.4224954e-01
 -2.4729881e-01
 -2.5226081e-01
 -2.5709522e-01
 -2.6175053e-01
 -2.6612410e-01
 -2.7010000e-01
 -2.7360801e-01
 -2.7677816e-01
 -2.7970508e-01
 -2.8237649e-01
 -2.8480896e-01
 -2.8703720e-01
 -2.8909819e-01
 -2.9100000e-01
 -2.9271944e-01
 -2.9419944e-01
 -2.9540926e-01
 -2.9636169e-01
 -2.9705896e-01
 -2.9753109e-01
 -2.9787148e-01
 -2.9800000e-01
 -2.9777064e-01
 -2.9733338e-01
 -2.9680071e-01
 -2.9614253e-01
 -2.9535145e-01
 -2.9442028e-01
 -2.9331090e-01
 -2.9200000e-01
 -2.9049312e-01
 -2.8885154e-01
 -2.8710459e-01
 -2.8522493e-01
 -2.8320498e-01
 -2.8106154e-01
 -2.7883693e-01
 -2.7650000e-01
 -2.7398922e-01
 -2.7135787e-01
 -2.6865077e-01
 -2.6586479e-01
 -2.6300137e-01
 -2.6006887e-01
 -2.5707985e-01
 -2.5400000e-01
 -2.5078125e-01
 -2.4746663e-01
 -2.4409881e-01
 -2.4068993e-01
 -2.3724986e-01
 -2.3375489e-01
 -2.3011715e-01
 -2.2640000e-01
 -2.2274296e-01
 -2.1909733e-01
 -2.1540491e-01
 -2.1165801e-01
 -2.0785496e-01
 -2.0402230e-01
 -2.0024055e-01
 -1.9650000e-01
 -1.9272336e-01
 -1.8886512e-01
 -1.8494391e-01
 -1.8104340e-01
 -1.7719464e-01
 -1.7340151e-01
 -1.6966019e-01
 -1.6590000e-01
 -1.6204800e-01
 -1.5822289e-01
 -1.5449734e-01
 -1.5082641e-01
 -1.4719787e-01
 -1.4358401e-01
 -1.3989326e-01
 -1.3620000e-01
 -1.3266270e-01
 -1.2923760e-01
 -1.2585480e-01
 -1.2248042e-01
 -1.1910490e-01
 -1.1575459e-01
 -1.1250996e-01
 -1.0940000e-01
 -1.0639290e-01
 -1.0339720e-01
 -1.0039362e-01
 -9.7467190e-02
 -9.4643164e-02
 -9.1919897e-02
 -8.9297761e-02
 -8.6700000e-02
 -8.4040512e-02
 -8.1432434e-02
 -7.8946632e-02
 -7.6538672e-02
 -7.4197281e-02
 -7.1894108e-02
 -6.9534002e-02
 -6.7200000e-02
 -6.5059126e-02
 -6.3037660e-02
 -6.1053605e-02
 -5.9094244e-02
 -5.7152925e-02
 -5.5234549e-02
 -5.3369091e-02
 -5.1600000e-02
 -4.9944870e-02
 -4.8289553e-02
 -4.6594949e-02
 -4.4953446e-02
 -4.3394759e-02
 -4.1913461e-02
 -4.0495852e-02
 -3.9100000e-02
 -3.7688680e-02
 -3.6325874e-02
 -3.5048084e-02
 -3.3825767e-02
 -3.2647913e-02
 -3.1500313e-02
 -3.0342994e-02
 -2.9200000e-02
 -2.8130122e-02
 -2.7122783e-02
 -2.6151869e-02
 -2.5196351e-02
 -2.4252278e-02
 -2.3324651e-02
 -2.2424138e-02
 -2.1600000e-02
 -2.0892589e-02
 -2.0192318e-02
 -1.9447914e-02
 -1.8726184e-02
 -1.8047510e-02
 -1.7406992e-02
 -1.6797293e-02
 -1.6200000e-02
 -1.5597320e-02
 -1.5006950e-02
 -1.4447462e-02
 -1.3926471e-02
 -1.3447648e-02
 -1.2991284e-02
 -1.2495792e-02
 -1.2000000e-02
 -1.1588621e-02
 -1.1203695e-02
 -1.0800972e-02
 -1.0398804e-02
 -1.0000414e-02
 -9.6176652e-03
 -9.2955807e-03
 -9.0000000e-03
 -8.6576401e-03
 -8.2964952e-03
 -7.9479460e-03
 -7.6144160e-03
 -7.2983569e-03
 -7.0066324e-03
 -6.7510238e-03
 -6.5000000e-03
 -6.2065291e-03
 -5.8968866e-03
 -5.5980828e-03
 -5.3140416e-03
 -5.0485514e-03
 -4.7907698e-03
 -4.5002673e-03
 -4.2000000e-03
 -3.9438420e-03
 -3.7019879e-03
 -3.4505100e-03
 -3.1994504e-03
 -2.9500911e-03
 -2.7000731e-03
 -2.4499751e-03
 -2.2000000e-03
 -1.9499209e-03
 -1.7001599e-03
 -1.4501904e-03
 -1.1988631e-03
 -9.5109218e-04
 -7.1254114e-04
 -4.8611666e-04
 -3.0000000e-04
 -1.8610118e-04
 -1.1256590e-04
 -5.1120506e-05
  1.3045392e-06
  4.9576478e-05
  8.2361381e-05
  5.4292872e-05
  7.4809950e-17
 -6.9646741e-06
  2.2484551e-06
  5.7707319e-07
 -6.2335000e-07
  1.0471587e-07
  8.9107379e-08
 -4.8013382e-08
 -4.1980308e-20
  9.6197340e-09
 -3.1056069e-09
 -7.9706394e-10
  8.6098231e-10
 -1.4463546e-10
 -1.2307673e-10
  6.6316953e-11
  5.7937054e-23
 -1.3286951e-11
  4.2895205e-12
  1.1009191e-12
 -1.1892043e-12
  1.9977311e-13
  1.6999580e-13
 -9.1598176e-14
 -8.0153801e-26
  1.8352177e-14
 -5.9247634e-15
 -1.5206095e-15
  1.6425506e-15
 -2.7593024e-16
 -2.3480128e-16
  1.2651706e-16
  1.1050616e-28
 -2.5348359e-17
  8.1833905e-18
  2.1002933e-18
 -2.2687206e-18
  3.8111984e-19
  3.2431178e-19
 -1.7474765e-19
 -1.5288124e-31
  3.5011612e-20
 -1.1303047e-20
 -2.9009631e-21
  3.1335980e-21
 -5.2640963e-22
 -4.4794530e-22
  2.4136462e-22
  2.1108192e-34
 -4.8358673e-23
  1.5611973e-23
  4.0068628e-24
 -4.3281822e-24
  7.2708651e-25
  6.1871016e-25
 -3.3337718e-25
 -2.9159783e-37
  6.6793875e-26
 -2.1563540e-26
 -5.5343515e-27
  5.9781637e-27
 -1.0042651e-27
 -8.5457367e-28
  4.6046660e-28
  4.0260682e-40
 -9.2256909e-29
  2.9783952e-29
  7.6441464e-30
 -8.2571479e-30
  1.3871091e-30
  1.1803526e-30
 -6.3600481e-31
 -5.5617872e-43
  1.2742691e-31
 -4.1138134e-32
 -1.0558233e-32
  1.1404922e-32
 -1.9159002e-33
 -1.6303244e-33
  8.7846136e-34
  7.6903260e-46
 -1.7600436e-34
  5.6820735e-35
  1.4583223e-35
 -1.5752685e-35
  2.6462760e-36
  2.2518336e-36
 -1.2133467e-36
 -1.0619215e-48
  2.4310041e-37
 -7.8481828e-38
 -2.0142612e-38
  2.1757894e-38
 -3.6550843e-39
 -3.1102733e-39
  1.6758965e-39
  1.4668133e-51
 -3.3577468e-40
  1.0840052e-40
  2.7821340e-41
 -3.0052397e-41
  5.0484686e-42
  4.2959658e-42
 -2.3147785e-42
 -2.0233664e-54
  4.6377807e-43
 -1.4972476e-43
 -3.8427339e-44
  4.1508914e-44
 -6.9730363e-45
 -5.9336658e-45
  3.1972141e-45
  2.7977243e-57
 -6.4057874e-46
  2.0680269e-46
  5.3076694e-47
 -5.7333802e-47
  9.6321527e-48
  8.1990714e-48
 -4.4265345e-48
 -3.9110406e-60
  9.3710861e-49
 -3.8275751e-49
 -1.8744004e-49
  7.5857799e-49
 -6.4225463e-49
 -2.4619099e-48
  7.5968937e-48
  3.3152243e-59
 -3.7887894e-47
  7.0313750e-47
  8.2629895e-47
 -4.9187666e-46
  4.5536020e-46
  1.7742237e-45
 -5.4957245e-45
 -2.3992729e-56
  2.7429898e-44
 -5.0906772e-44
 -5.9823857e-44
  3.5611794e-43
 -3.2968014e-43
 -1.2845355e-42
  3.9788970e-42
  1.7374015e-53
 -1.9859208e-41
  3.6856433e-41
  4.3312390e-41
 -2.5782890e-40
  2.3868797e-40
  9.3000194e-40
 -2.8807159e-39
 -1.2581238e-50
  1.4378039e-38
 -2.6684007e-38
 -3.1358110e-38
  1.8666777e-37
 -1.7280976e-37
 -6.7332012e-37
  2.0856343e-36
  9.1073453e-48
 -1.0409681e-35
  1.9319184e-35
  2.2703228e-35
 -1.3514721e-34
  1.2511403e-34
  4.8748284e-34
 -1.5099964e-33
 -6.5928290e-45
  7.5365944e-33
 -1.3987062e-32
 -1.6437106e-32
  9.7846390e-32
 -9.0582383e-32
 -3.5293690e-31
  1.0932353e-30
  4.7731499e-42
 -5.4564839e-30
  1.0126614e-29
  1.1900442e-29
 -7.0840651e-29
  6.5581520e-29
  2.5552583e-28
 -7.9150084e-28
 -3.4553656e-39
  3.9504868e-27
 -7.3316545e-27
 -8.6159036e-27
  5.1288534e-26
 -4.7480930e-26
 -1.8500035e-25
  5.7304552e-25
  2.5020538e-36
 -2.8601470e-24
  5.3081077e-24
  6.2379023e-24
 -3.7132828e-23
  3.4376128e-23
  1.3394000e-22
 -4.1488416e-22
 -1.8119149e-33
  2.0707425e-21
 -3.8430626e-21
 -4.5162327e-21
  2.6884116e-20
 -2.4888269e-20
 -9.6972372e-20
  3.0037556e-19
  1.3115601e-30
 -1.4992147e-18
  2.7823720e-18
  3.2697462e-18
 -1.9464063e-17
  1.8019072e-17
  7.0207863e-17
 -2.1747149e-16
 -9.4964212e-28
  1.0854294e-15
 -2.0144335e-15
 -2.3672917e-15
  1.4091955e-14
 -1.3045784e-14
 -5.0830396e-14
  1.5744906e-13
  6.8738709e-25
 -7.8584937e-13
  1.4584471e-12
  1.7139160e-12
 -1.0202556e-11
  9.4451293e-12
  3.6801136e-11
 -1.1399290e-10
 -4.9763186e-22
  5.6895386e-10
 -1.0559137e-09
 -1.2408728e-09
  7.3866362e-09
 -6.8382605e-09
 -2.6643972e-08
  8.2530703e-08
  3.6034543e-19
 -4.1192181e-07
  7.6448004e-07
  8.9839018e-07
 -5.3479144e-06
  5.3805787e-06
  1.1210270e-04
  4.7735726e-04
  1.1000000e-03
  1.8458871e-03
  2.5912050e-03
  3.2975746e-03
  4.0268826e-03
  4.7970460e-03
  5.5970476e-03
  6.4030269e-03
  7.2000000e-03
  7.9910647e-03
  8.8180622e-03
  9.6993367e-03
  1.0612322e-02
  1.1549334e-02
  1.2509792e-02
  1.3491701e-02
  1.4500000e-02
  1.5541655e-02
  1.6609866e-02
  1.7699419e-02
  1.8811818e-02
  1.9949764e-02
  2.1111441e-02
  2.2286610e-02
  2.3500000e-02
  2.4786580e-02
  2.6111489e-02
  2.7449819e-02
  2.8811495e-02
  3.0199757e-02
  3.1619468e-02
  3.3086878e-02
  3.4600000e-02
  3.6143287e-02
  3.7708276e-02
  3.9297828e-02
  4.0925911e-02
  4.2598051e-02
  4.4325810e-02
  4.6138832e-02
  4.8000000e-02
  4.9845144e-02
  5.1714772e-02
  5.3646298e-02
  5.5639281e-02
  5.7696910e-02
  5.9801048e-02
  6.1887395e-02
  6.4000000e-02
  6.6230949e-02
  6.8512300e-02
  7.0798907e-02
  7.3124462e-02
  7.5498557e-02
  7.7927219e-02
  8.0434869e-02
  8.3000000e-02
  8.5584047e-02
  8.8228534e-02
  9.0950061e-02
  9.3710562e-02
  9.6500613e-02
  9.9322795e-02
  1.0217658e-01
  1.0510000e-01
  1.0813376e-01
  1.1121036e-01
  1.1429726e-01
  1.1743840e-01
  1.2064692e-01
  1.2390878e-01
  1.2718882e-01
  1.3050000e-01
  1.3388163e-01
  1.3732123e-01
  1.4080028e-01
  1.4431049e-01
  1.4785047e-01
  1.5143037e-01
  1.5507819e-01
  1.5880000e-01
  1.6258379e-01
  1.6642047e-01
  1.7030002e-01
  1.7421116e-01
  1.7814988e-01
  1.8210331e-01
  1.8603704e-01
  1.9000000e-01
  1.9407598e-01
  1.9822288e-01
  2.0240052e-01
  2.0661136e-01
  2.1084916e-01
  2.1510013e-01
  2.1934717e-01
  2.2360000e-01
  2.2788613e-01
  2.3221965e-01
  2.3659975e-01
  2.4101188e-01
  2.4544933e-01
  2.4989299e-01
  2.5429399e-01
  2.5870000e-01
  2.6319409e-01
  2.6769284e-01
  2.7214916e-01
  2.7661290e-01
  2.8109873e-01
  2.8559912e-01
  2.9009981e-01
  2.9460000e-01
  2.9910389e-01
  3.0359166e-01
  3.0805107e-01
  3.1248703e-01
  3.1690104e-01
  3.2129977e-01
  3.2570376e-01
  3.3010000e-01
  3.3445861e-01
  3.3879108e-01
  3.4310197e-01
  3.4737453e-01
  3.5160174e-01
  3.5579005e-01
  3.5996191e-01
  3.6410000e-01
  3.6816763e-01
  3.7217997e-01
  3.7615109e-01
  3.8007642e-01
  3.8395044e-01
  3.8776876e-01
  3.9152768e-01
  3.9520000e-01
  3.9876417e-01
  4.0229224e-01
  4.0580556e-01
  4.0923514e-01
  4.1255506e-01
  4.1577347e-01
  4.1892261e-01
  4.2200000e-01
  4.2497989e-01
  4.2786087e-01
  4.3065153e-01
  4.3336408e-01
  4.3600132e-01
  4.3855165e-01
  4.4098357e-01
  4.4330000e-01
  4.4552642e-01
  4.4766403e-01
  4.4970461e-01
  4.5163662e-01
  4.5345425e-01
  4.5516241e-01
  4.5678161e-01
  4.5830000e-01
  4.5968797e-01
  4.6095129e-01
  4.6210240e-01
  4.6315056e-01
  4.6410316e-01
  4.6495475e-01
  4.6567688e-01
  4.6630000e-01
  4.6685689e-01
  4.6720486e-01
  4.6741783e-01
  4.6787558e-01
  4.6872166e-01
  4.6999579e-01
  4.7173825e-01
  4.7360000e-01
  4.7510589e-01
  4.7647258e-01
  4.7785472e-01
  4.7911307e-01
  4.8020599e-01
  4.8117840e-01
  4.8213726e-01
  4.8300000e-01
  4.8360134e-01
  4.8405400e-01
  4.8444982e-01
  4.8476556e-01
  4.8500113e-01
  4.8509392e-01
  4.8483694e-01
  4.8440000e-01
  4.8411375e-01
  4.8373479e-01
  4.8310438e-01
  4.8234930e-01
  4.8150247e-01
  4.8055907e-01
  4.7953936e-01
  4.7840000e-01
  4.7708235e-01
  4.7567124e-01
  4.7420551e-01
  4.7262332e-01
  4.7090594e-01
  4.6907319e-01
  4.6717608e-01
  4.6520000e-01
  4.6309040e-01
  4.6084841e-01
  4.5849933e-01
  4.5607842e-01
  4.5359990e-01
  4.5106751e-01
  4.4848091e-01
  4.4580000e-01
  4.4297917e-01
  4.4007029e-01
  4.3710307e-01
  4.3404964e-01
  4.3090369e-01
  4.2768137e-01
  4.2441952e-01
  4.2110000e-01
  4.1767662e-01
  4.1416907e-01
  4.1060049e-01
  4.0697654e-01
  4.0330087e-01
  3.9957077e-01
  3.9577118e-01
  3.9190000e-01
  3.8796638e-01
  3.8397939e-01
  3.7994985e-01
  3.7588956e-01
  3.7179938e-01
  3.6767727e-01
  3.6352317e-01
  3.5930000e-01
  3.5496753e-01
  3.5058723e-01
  3.4619991e-01
  3.4178846e-01
  3.3735061e-01
  3.3289042e-01
  3.2840732e-01
  3.2390000e-01
  3.1936357e-01
  3.1477947e-01
  3.1014896e-01
  3.0550122e-01
  3.0084959e-01
  2.9619064e-01
  2.9150366e-01
  2.8680000e-01
  2.8210436e-01
  2.7738953e-01
  2.7264832e-01
  2.6791374e-01
  2.6319860e-01
  2.5849081e-01
  2.5375026e-01
  2.4900000e-01
  2.4429379e-01
  2.3960209e-01
  2.3490063e-01
  2.3019874e-01
  2.2550078e-01
  2.2081106e-01
  2.1614091e-01
  2.1150000e-01
  2.0689244e-01
  2.0230861e-01
  1.9774798e-01
  1.9322533e-01
  1.8874841e-01
  1.8430233e-01
  1.7983671e-01
  1.7540000e-01
  1.7108106e-01
  1.6681231e-01
  1.6254896e-01
  1.5832411e-01
  1.5414881e-01
  1.5001164e-01
  1.4588319e-01
  1.4180000e-01
  1.3782601e-01
  1.3392406e-01
  1.3005214e-01
  1.2619643e-01
  1.2235201e-01
  1.1853997e-01
  1.1482674e-01
  1.1120000e-01
  1.0759589e-01
  1.0400653e-01
  1.0044637e-01
  9.6938791e-02
  9.3497337e-02
  9.0102696e-02
  8.6682303e-02
  8.3300000e-02
  8.0075881e-02
  7.6913909e-02
  7.3749290e-02
  7.0624234e-02
  6.7548384e-02
  6.4518027e-02
  6.1538546e-02
  5.8600000e-02
  5.5687783e-02
  5.2819248e-02
  4.9999781e-02
  4.7210971e-02
  4.4450447e-02
  4.1730550e-02
  3.9077434e-02
  3.6500000e-02
  3.3987781e-02
  3.1512119e-02
  2.9051112e-02
  2.6598044e-02
  2.4151223e-02
  2.1737405e-02
  1.9434349e-02
  1.7200000e-02
  1.4938732e-02
  1.2729455e-02
  1.0603003e-02
  8.4855166e-03
  6.4131503e-03
  4.3923581e-03
  2.2889541e-03
  6.0000000e-04
  8.7110489e-06
 -5.4565526e-05
 -8.0505103e-05
 -5.7038945e-05
 -4.2733551e-05
 -7.6538430e-05
 -5.7430430e-05
 -3.3149481e-17
  7.5933003e-06
 -2.4513990e-06
 -6.2915938e-07
  6.7961310e-07
 -1.1416745e-07
 -9.7150144e-08
  5.2347034e-08
  4.5840068e-20
 -1.0488004e-08
  3.3859166e-09
  8.6900633e-10
 -9.3869392e-10
  1.5769015e-10
  1.3418554e-10
 -7.2302671e-11
 -6.3273361e-23
  1.4486221e-11
 -4.6766894e-12
 -1.2002873e-12
  1.2965410e-12
 -2.1780448e-13
 -1.8533949e-13
  9.9865758e-14
  8.7350273e-26
 -2.0008631e-14
  6.4595280e-15
  1.6578585e-15
 -1.7908059e-15
  3.0083550e-16
  2.5599426e-16
 -1.3793639e-16
 -1.2052280e-28
  2.7636283e-17
 -8.9220171e-18
 -2.2898642e-18
  2.4734936e-18
 -4.1551943e-19
 -3.5358391e-19
  1.9052024e-19
  1.6660742e-31
 -3.8171734e-20
  1.2323252e-20
  3.1628019e-21
 -3.4164341e-21
  5.7392296e-22
  4.8837650e-22
 -2.6315001e-22
 -2.2987900e-34
  5.2723490e-23
 -1.7021098e-23
 -4.3685192e-24
  4.7188407e-24
 -7.9271279e-25
 -6.7455446e-25
  3.6346756e-25
  3.1777844e-37
 -7.2822639e-26
  2.3509849e-26
  6.0338778e-27
 -6.5177482e-27
  1.0949093e-27
  9.3170684e-28
 -5.0202797e-28
 -4.3904714e-40
  1.0058395e-28
 -3.2472229e-29
 -8.3341013e-30
  9.0024318e-30
 -1.5123085e-30
 -1.2868904e-30
  6.9341012e-31
  6.0668825e-43
 -1.3892837e-31
  4.4851230e-32
  1.1511212e-32
 -1.2434322e-32
  2.0888279e-33
  1.7774763e-33
 -9.5775061e-34
  0.0000000e+00
  1.9189038e-34
 -6.1949331e-35
 -1.5899494e-35
  1.7174510e-35
 -2.8851269e-36
 -2.4550824e-36
  1.3228625e-36
  0.0000000e+00
 -2.6504247e-37
  8.5565538e-38
  2.1960669e-38
 -2.3721745e-38
  3.9849895e-39
  3.3910042e-39
 -1.8271616e-39
  0.0000000e+00
  3.6608145e-40
 -1.1818467e-40
 -3.0332473e-41
  3.2764903e-41
 -5.5041396e-42
 -4.6837164e-42
  2.5237087e-42
  0.0000000e+00
 -5.0563833e-43
  1.6323881e-43
  4.1895761e-44
 -4.5255477e-44
  7.6024172e-45
  6.4692340e-45
 -3.4857922e-45
  0.0000000e+00
  6.9839681e-46
 -2.2546839e-46
 -5.7867184e-47
  6.2507685e-47
 -1.0500596e-47
 -8.9354231e-48
  4.8146392e-48
  0.0000000e+00
 -9.6463833e-49
  3.1142103e-49
  7.9927202e-50
 -8.6336746e-50
  1.4503614e-50
  1.2341768e-50
 -6.6500669e-51
  0.0000000e+00
  1.3323759e-51
 -4.3014036e-52
 -1.1039690e-52
  1.1924988e-52
 -2.0032654e-53
 -1.7046674e-53
  9.1851928e-54
  0.0000000e+00
 -1.8403017e-54
  5.9411766e-55
  1.5248220e-55
 -1.6471009e-55
  2.7669464e-56
  2.3545174e-56
 -1.2686755e-56
  0.0000000e+00
  2.5418581e-57
 -8.2060607e-58
 -2.1061117e-58
  2.2750056e-58
 -3.8217565e-59
 -3.2521021e-59
  1.7523175e-59
  1.5314964e-71
 -3.5108604e-60
  1.1334360e-60
  2.9089996e-61
 -3.1422789e-61
  5.2786793e-62
  4.4918623e-62
 -2.4203327e-62
  0.0000000e+00
  4.8492640e-63
 -1.5655223e-63
 -4.0179629e-64
  4.3401725e-64
 -7.2910074e-65
 -6.2042415e-65
  3.3430073e-65
  2.9238612e-77
 -6.6978912e-66
  2.1623277e-66
  5.5496831e-67
 -5.9947248e-67
  1.0070471e-67
  8.5694107e-68
 -4.6174222e-68
  0.0000000e+00
  9.2512485e-69
 -2.9866462e-69
 -7.6653228e-70
  8.2800224e-70
 -1.3909517e-70
 -1.1836225e-70
  6.3776671e-71
  5.5715516e-83
 -1.2777992e-71
  4.1252097e-72
  1.0587483e-72
 -1.1436517e-72
  1.9212077e-73
  1.6348408e-73
 -8.8089493e-74
  0.0000000e+00
  1.7649194e-74
 -5.6978144e-75
 -1.4623623e-75
  1.5796324e-75
 -2.6536069e-76
 -2.2580718e-76
  1.2167080e-76
  1.0636945e-88
 -2.4377386e-77
  7.8699244e-78
  2.0198412e-78
 -2.1818169e-78
  3.6652099e-79
  3.1188896e-79
 -1.6805392e-79
  0.0000000e+00
  3.3670487e-80
 -1.0870082e-80
 -2.7898413e-81
  3.0135650e-81
 -5.0624542e-82
 -4.3078668e-82
  2.3211911e-82
  2.0269187e-94
 -4.6506267e-83
  1.5013919e-83
  3.8533380e-84
 -4.1621450e-84
  6.9900804e-85
  5.9412469e-85
 -3.1786371e-85
  0.0000000e+00
  5.0542617e-86
  4.6745638e-87
  2.4541064e-86
 -1.7202105e-85
  1.6360696e-85
  6.4040437e-85
 -1.9857794e-84
 -8.6704646e-96
  9.9134128e-84
 -1.8398303e-83
 -2.1621068e-83
  1.2870538e-82
 -1.1915045e-82
 -4.6424689e-82
  1.4380222e-81
  0.0000000e+00
 -7.1773614e-81
  1.3320367e-80
  1.5653629e-80
 -9.3182526e-80
  8.6264759e-80
  3.3611411e-79
 -1.0411261e-78
 -4.5462133e-90
  5.1963998e-78
 -9.6439272e-78
 -1.1333206e-77
  6.7464020e-77
 -6.2455566e-77
 -2.4334615e-76
  7.5377383e-76
  0.0000000e+00
 -3.7621862e-75
  6.9821900e-75
  8.2052252e-75
 -4.8843857e-74
  4.5217744e-74
  1.7618228e-73
 -5.4573121e-73
 -2.3824956e-84
  2.7238176e-72
 -5.0550959e-72
 -5.9405717e-72
  3.5362885e-71
 -3.2737584e-71
 -1.2755572e-70
  3.9510864e-70
  0.0000000e+00
 -1.9720402e-69
  3.6598824e-69
  4.3009657e-69
 -2.5602680e-68
  2.3701966e-68
  9.2350168e-68
 -2.8605811e-67
 -1.2488979e-78
  1.4277544e-66
 -2.6497498e-66
 -3.1138932e-66
  1.8536305e-65
 -1.7160190e-65
 -6.6861394e-65
  2.0710568e-64
  0.0000000e+00
 -1.0336922e-63
  1.9184152e-63
  2.2544544e-63
 -1.3420259e-62
  1.2423954e-62
  4.8407557e-62
 -1.4994422e-61
 -6.5455580e-73
  7.4839173e-61
 -1.3889300e-60
 -1.6322219e-60
  9.7162492e-60
 -8.9949256e-60
 -3.5047004e-59
  1.0855941e-58
  0.0000000e+00
 -5.4183458e-58
  1.0055834e-57
  1.1817264e-57
 -7.0345510e-57
  6.5123137e-57
  2.5373983e-56
 -7.8596864e-56
 -3.4317575e-67
  3.9228749e-55
 -7.2804098e-55
 -8.5556827e-55
  5.0930052e-54
 -4.7149062e-54
 -1.8370728e-53
  5.6904021e-53
  0.0000000e+00
 -2.8401560e-52
  5.2710066e-52
  6.1943024e-52
 -3.6873287e-51
  3.4135855e-51
  1.3300382e-50
 -4.1198432e-50
 -1.7986070e-61
  2.0562690e-49
 -3.8162015e-49
 -4.4846664e-49
  2.6696209e-48
 -2.4714312e-48
 -9.6294582e-48
  2.9827608e-47
  0.0000000e+00
 -1.4887359e-46
  2.7629246e-46
  3.2468923e-46
 -1.9328018e-45
  1.7893128e-45
  6.9717145e-45
 -2.1595147e-44
 -9.4274336e-56
  1.0778428e-43
 -2.0003536e-43
 -2.3507455e-43
  1.3993459e-42
 -1.2954600e-42
 -5.0475116e-42
  1.5634857e-41
  0.0000000e+00
 -7.8035666e-41
  1.4482533e-40
  1.7019365e-40
 -1.0131245e-39
  9.3791124e-40
  3.6543915e-39
 -1.1319615e-38
 -4.9422627e-50
  5.6497715e-38
 -1.0485334e-37
 -1.2321997e-37
  7.3350072e-37
 -6.7904644e-37
 -2.6457744e-36
  8.1953854e-36
  0.0000000e+00
 -4.0904267e-35
  7.5913670e-35
  8.9211087e-35
 -5.3105351e-34
  4.9162869e-34
  1.9155370e-33
 -5.9334477e-33
 -2.5907206e-44
  2.9614633e-32
 -5.4961392e-32
 -6.4588704e-32
  3.8448201e-31
 -3.5593849e-31
 -1.3868461e-30
  4.2958079e-30
  0.0000000e+00
 -2.1440953e-29
  3.9791972e-29
  4.6762132e-29
 -2.7836444e-28
  2.5769898e-28
  1.0040747e-27
 -3.1101590e-27
 -1.3581662e-38
  1.5523221e-26
 -2.8809333e-26
 -3.3855719e-26
  2.0153547e-25
 -1.8657370e-25
 -7.2694868e-25
  2.2517508e-24
  0.0000000e+00
 -1.1238790e-23
  2.0857917e-23
  2.4511494e-23
 -1.4591140e-22
  1.3507910e-22
  5.2630984e-22
 -1.6302645e-21
 -7.1176208e-33
  8.1368687e-21
 -1.5101103e-20
 -1.7746288e-20
  1.0563965e-19
 -9.7797084e-20
 -3.8104760e-19
  1.1803092e-18
  0.0000000e+00
 -5.8910817e-18
  1.0933178e-17
  1.2848288e-17
 -7.6482964e-17
  7.0804954e-17
  2.7587794e-16
 -8.5454226e-16
 -3.7303907e-27
  4.2651350e-15
 -7.9156057e-15
 -9.3021427e-15
  5.5373560e-14
 -5.1262689e-14
 -1.9973524e-13
  6.1868742e-13
  0.0000000e+00
 -3.0879519e-12
  5.7308876e-12
  6.7347384e-12
 -4.0090381e-11
  3.7114116e-11
  1.4460804e-10
 -4.4792883e-10
 -1.9556297e-21
  2.2356729e-09
 -4.1491547e-09
 -4.8759413e-09
  2.9025380e-08
 -2.6870569e-08
 -1.0469602e-07
  3.2429986e-07
  0.0000000e+00
 -1.6186241e-06
  3.0039823e-06
  3.5301748e-06
 -2.6014335e-05
 -3.6991058e-05
 -2.8887725e-05
 -1.4221452e-04
  1.0000000e-04
  1.3867253e-03
  3.2969960e-03
  5.4156427e-03
  7.6943498e-03
  1.0053350e-02
  1.2441692e-02
  1.4923928e-02
  1.7500000e-02
  2.0126923e-02
  2.2836902e-02
  2.5647868e-02
  2.8536780e-02
  3.1498310e-02
  3.4538923e-02
  3.7670448e-02
  4.0900000e-02
  4.4225991e-02
  4.7629116e-02
  5.1097966e-02
  5.4636817e-02
  5.8248093e-02
  6.1929695e-02
  6.5674137e-02
  6.9500000e-02
  7.3429762e-02
  7.7419758e-02
  8.1447600e-02
  8.5537738e-02
  8.9697374e-02
  9.3918725e-02
  9.8183070e-02
  1.0250000e-01
  1.0688799e-01
  1.1130992e-01
  1.1574818e-01
  1.2022600e-01
  1.2474752e-01
  1.2930694e-01
  1.3389752e-01
  1.3850000e-01
  1.4309613e-01
  1.4770917e-01
  1.5235007e-01
  1.5700092e-01
  1.6164892e-01
  1.6628737e-01
  1.7091424e-01
  1.7550000e-01
  1.8001203e-01
  1.8449091e-01
  1.8895296e-01
  1.9336200e-01
  1.9770235e-01
  2.0197160e-01
  2.0617218e-01
  2.1030000e-01
  2.1433831e-01
  2.1824297e-01
  2.2200222e-01
  2.2565177e-01
  2.2920197e-01
  2.3265009e-01
  2.3599136e-01
  2.3920000e-01
  2.4224551e-01
  2.4514250e-01
  2.4790418e-01
  2.5052675e-01
  2.5300325e-01
  2.5533000e-01
  2.5750971e-01
  2.5950000e-01
  2.6125328e-01
  2.6284121e-01
  2.6430520e-01
  2.6561220e-01
  2.6675606e-01
  2.6772865e-01
  2.6849180e-01
  2.6910000e-01
  2.6962059e-01
  2.6987791e-01
  2.6980239e-01
  2.6952897e-01
  2.6910237e-01
  2.6853564e-01
  2.6786665e-01
  2.6700000e-01
  2.6580785e-01
  2.6445066e-01
  2.6300867e-01
  2.6137367e-01
  2.5950875e-01
  2.5744275e-01
  2.5525731e-01
  2.5290000e-01
  2.5026118e-01
  2.4743656e-01
  2.4450167e-01
  2.4144058e-01
  2.3825278e-01
  2.3495815e-01
  2.3159374e-01
  2.2810000e-01
  2.2438941e-01
  2.2056602e-01
  2.1670091e-01
  2.1276365e-01
  2.0875253e-01
  2.0467343e-01
  2.0051569e-01
  1.9630000e-01
  1.9206060e-01
  1.8778250e-01
  1.8345204e-01
  1.7907354e-01
  1.7465276e-01
  1.7020235e-01
  1.6574875e-01
  1.6130000e-01
  1.5685016e-01
  1.5240008e-01
  1.4795017e-01
  1.4349886e-01
  1.3905111e-01
  1.3461262e-01
  1.3018587e-01
  1.2580000e-01
  1.2148735e-01
  1.1721025e-01
  1.1294840e-01
  1.0872487e-01
  1.0454858e-01
  1.0041931e-01
  9.6334200e-02
  9.2300000e-02
  8.8329383e-02
  8.4427954e-02
  8.0597593e-02
  7.6837690e-02
  7.3147472e-02
  6.9519145e-02
  6.5931745e-02
  6.2400000e-02
  5.8964158e-02
  5.5650096e-02
  5.2450256e-02
  4.9322212e-02
  4.6249864e-02
  4.3240047e-02
  4.0320493e-02
  3.7500000e-02
  3.4772210e-02
  3.2137299e-02
  2.9596720e-02
  2.7150812e-02
  2.4796103e-02
  2.2526218e-02
  2.0331850e-02
  1.8200000e-02
  1.6124820e-02
  1.4138404e-02
  1.2249169e-02
  1.0424669e-02
  8.6482249e-03
  6.9340890e-03
  5.3386401e-03
  3.8000000e-03
  2.2624128e-03
  1.0701151e-03
  3.9070919e-04
  4.4068422e-05
 -6.5237151e-05
 -2.2246710e-05
  1.1481959e-05
  1.0047518e-17
 -2.3004709e-06
  7.4267734e-07
  1.9061051e-07
 -2.0589600e-07
  3.4588240e-08
  2.9432667e-08
 -1.5859090e-08
  0.0000000e+00
  3.1774521e-09
 -1.0257994e-09
 -2.6327469e-10
  2.8438729e-10
 -4.7773903e-11
 -4.0652933e-11
  2.1904862e-11
  1.9164120e-23
 -4.3887544e-12
  1.4168527e-12
  3.6363977e-13
 -3.9280087e-13
  6.5986180e-14
  5.6150567e-14
 -3.0255391e-14
 -2.6428421e-26
  6.0618270e-15
 -1.9569826e-15
 -5.0226583e-16
  5.4254367e-16
 -9.1141307e-17
 -7.7556180e-17
  4.1789294e-17
  3.6552659e-29
 -8.3727052e-18
  2.7030198e-18
  6.9373866e-19
 -7.4937114e-19
  1.2588602e-19
  1.0712200e-19
 -5.7720130e-20
 -5.0526541e-32
  1.1564532e-20
 -3.7334599e-21
 -9.5820440e-22
  1.0350450e-21
 -1.7387605e-22
 -1.4795885e-22
  7.9724089e-23
  6.9718664e-35
 -1.5973141e-23
  5.1567224e-24
  1.3234893e-24
 -1.4296229e-24
  2.4016075e-25
  2.0436344e-25
 -1.1011635e-25
 -9.6296497e-38
  2.2062392e-26
 -7.1225583e-27
 -1.8280274e-27
  1.9746212e-27
 -3.3171453e-28
 -2.8227105e-28
  1.5209646e-28
  1.3297780e-40
 -3.0481756e-29
  9.8541044e-30
  2.5440572e-30
 -2.8413944e-30
  5.6371794e-31
  8.0112479e-31
