Patient Number 00C82E7 Lead Number 1 Time Step .0006 Data Points 8011
0.0000000e+00
-9.6065925e-08
-1.7225614e-07
-2.2999034e-07
-2.7068822e-07
-2.9576947e-07
-3.0665379e-07
-3.0476087e-07
-2.9151039e-07
-2.6832207e-07
-2.3661558e-07
-1.9781062e-07
-1.5332690e-07
-1.0458409e-07
-5.3001890e-08
 0.0000000e+00
 5.3001890e-08
 1.0458409e-07
 1.5332690e-07
 1.9781062e-07
 2.3661558e-07
 2.6832207e-07
 2.9151039e-07
 3.0476087e-07
 3.0665379e-07
 2.9576947e-07
 2.7068822e-07
 2.2999034e-07
 1.7225614e-07
 9.6065925e-08
 0.0000000e+00
-1.1594163e-07
-2.4608020e-07
-3.8331724e-07
-5.2055428e-07
-6.5069284e-07
-7.6663448e-07
-8.6128071e-07
-9.2753307e-07
-9.5829310e-07
-9.4646232e-07
-8.8494227e-07
-7.6663448e-07
-5.8444048e-07
-3.3126181e-07
 0.0000000e+00
 4.1076465e-07
 8.7973673e-07
 1.3799421e-06
 1.8844065e-06
 2.3661558e-06
 2.7982158e-06
 3.1536124e-06
 3.4053714e-06
 3.5265186e-06
 3.4900798e-06
 3.2690809e-06
 2.8365476e-06
 2.1655058e-06
 1.2289813e-06
 0.0000000e+00
-1.5271170e-06
-3.2728667e-06
-5.1364510e-06
-7.0170716e-06
-8.8139304e-06
-1.0426229e-05
-1.1753169e-05
-1.2693953e-05
-1.3147781e-05
-1.3013857e-05
-1.2191381e-05
-1.0579556e-05
-8.0775827e-06
-4.5846635e-06
 0.0000000e+00
 5.6977032e-06
 1.2211730e-05
 1.9165862e-05
 2.6183880e-05
 3.2889566e-05
 3.8906700e-05
 4.3859064e-05
 4.7370439e-05
 4.9064607e-05
 4.8565348e-05
 4.5496444e-05
 3.9481676e-05
 3.0144825e-05
 1.7109673e-05
 0.0000000e+00
-2.1263696e-05
-4.5574054e-05
-7.1526997e-05
-9.7718449e-05
-1.2274433e-04
-1.4520057e-04
-1.6368309e-04
-1.7678780e-04
-1.8311065e-04
-1.8124753e-04
-1.6979439e-04
-1.4734715e-04
-1.1250172e-04
-6.3854027e-05
 0.0000000e+00
 7.9357080e-05
 1.7008448e-04
 2.6694213e-04
 3.6468991e-04
 4.5808776e-04
 5.4189558e-04
 6.1087328e-04
 6.5978078e-04
 6.8337797e-04
 6.7642479e-04
 6.3368113e-04
 5.4990691e-04
 4.1986204e-04
 2.3830643e-04
 0.0000000e+00
-2.9517499e-04
-6.2684685e-04
-9.6952151e-04
-1.2977049e-03
-1.5859030e-03
-1.8086218e-03
-1.9403671e-03
-1.9556449e-03
-1.8289613e-03
-1.5348220e-03
-1.0477331e-03
-3.4220050e-04
 6.0726984e-04
 1.8261720e-03
 3.3400000e-03
 5.1671029e-03
 7.2972496e-03
 9.7130639e-03
 1.2397170e-02
 1.5332191e-02
 1.8500751e-02
 2.1885475e-02
 2.5468986e-02
 2.9233907e-02
 3.3162863e-02
 3.7238478e-02
 4.1443375e-02
 4.5760179e-02
 5.0171512e-02
 5.4660000e-02
 5.9211195e-02
 6.3822364e-02
 6.8493706e-02
 7.3225417e-02
 7.8017695e-02
 8.2870736e-02
 8.7784738e-02
 9.2759898e-02
 9.7796413e-02
 1.0289448e-01
 1.0805430e-01
 1.1327606e-01
 1.1855997e-01
 1.2390621e-01
 1.2931500e-01
 1.3478421e-01
 1.4030252e-01
 1.4585627e-01
 1.5143183e-01
 1.5701555e-01
 1.6259378e-01
 1.6815289e-01
 1.7367923e-01
 1.7915916e-01
 1.8457903e-01
 1.8992520e-01
 1.9518402e-01
 2.0034186e-01
 2.0538507e-01
 2.1030000e-01
 2.1507404e-01
 2.1969866e-01
 2.2416636e-01
 2.2846966e-01
 2.3260104e-01
 2.3655301e-01
 2.4031807e-01
 2.4388872e-01
 2.4725746e-01
 2.5041681e-01
 2.5335925e-01
 2.5607728e-01
 2.5856342e-01
 2.6081016e-01
 2.6281000e-01
 2.6455640e-01
 2.6604663e-01
 2.6727891e-01
 2.6825147e-01
 2.6896253e-01
 2.6941031e-01
 2.6959305e-01
 2.6950895e-01
 2.6915626e-01
 2.6853319e-01
 2.6763796e-01
 2.6646881e-01
 2.6502394e-01
 2.6330160e-01
 2.6130000e-01
 2.5901977e-01
 2.5647112e-01
 2.5366668e-01
 2.5061906e-01
 2.4734089e-01
 2.4384478e-01
 2.4014336e-01
 2.3624925e-01
 2.3217505e-01
 2.2793340e-01
 2.2353692e-01
 2.1899822e-01
 2.1432992e-01
 2.0954464e-01
 2.0465500e-01
 1.9967316e-01
 1.9460941e-01
 1.8947359e-01
 1.8427551e-01
 1.7902503e-01
 1.7373195e-01
 1.6840612e-01
 1.6305737e-01
 1.5769552e-01
 1.5233042e-01
 1.4697187e-01
 1.4162973e-01
 1.3631382e-01
 1.3103396e-01
 1.2580000e-01
 1.2062063e-01
 1.1550004e-01
 1.1044130e-01
 1.0544747e-01
 1.0052160e-01
 9.5666769e-02
 9.0886032e-02
 8.6182451e-02
 8.1559089e-02
 7.7019008e-02
 7.2565270e-02
 6.8200939e-02
 6.3929075e-02
 5.9752741e-02
 5.5675000e-02
 5.1699511e-02
 4.7832326e-02
 4.4080095e-02
 4.0449466e-02
 3.6947088e-02
 3.3579612e-02
 3.0353686e-02
 2.7275959e-02
 2.4353081e-02
 2.1591702e-02
 1.8998469e-02
 1.6580034e-02
 1.4343044e-02
 1.2294150e-02
 1.0440000e-02
 8.7841273e-03
 7.3175978e-03
 6.0283613e-03
 4.9043671e-03
 3.9335649e-03
 3.1039042e-03
 2.4033346e-03
 1.8198055e-03
 1.3412665e-03
 9.5566724e-04
 6.5095718e-04
 4.1508588e-04
 2.3600288e-04
 1.0165774e-04
 0.0000000e+00
-7.9303264e-05
-1.3971482e-04
-1.8297989e-04
-2.1084372e-04
-2.2505154e-04
-2.2734857e-04
-2.1948006e-04
-2.0319123e-04
-1.8022731e-04
-1.5233354e-04
-1.2125514e-04
-8.8737362e-05
-5.6525422e-05
-2.6364558e-05
 0.0000000e+00
 2.1192455e-05
 3.7314754e-05
 4.8838281e-05
 5.6234420e-05
 5.9974554e-05
 6.0530067e-05
 5.8372342e-05
 5.3972762e-05
 4.7802712e-05
 4.0333575e-05
 3.2036733e-05
 2.3383571e-05
 1.4845473e-05
 6.8938214e-06
 0.0000000e+00
-5.4665552e-06
-9.5441985e-06
-1.2373232e-05
-1.4093958e-05
-1.4846678e-05
-1.4771694e-05
-1.4009308e-05
-1.2699823e-05
-1.0983540e-05
-9.0007611e-06
-6.8917884e-06
-4.7969239e-06
-2.8564697e-06
-1.2107277e-06
 0.0000000e+00
 6.7376592e-07
 8.6204009e-07
 6.5464700e-07
 1.4141116e-07
-5.8784295e-07
-1.4432908e-06
-2.3351080e-06
-3.1734699e-06
-3.8685522e-06
-4.3305302e-06
-4.4695795e-06
-4.1958757e-06
-3.4195941e-06
-2.0509104e-06
 0.0000000e+00
 2.7714915e-06
 6.0960382e-06
 9.7546441e-06
 1.3528313e-05
 1.7198050e-05
 2.0544857e-05
 2.3349740e-05
 2.5393703e-05
 2.6457749e-05
 2.6322882e-05
 2.4770107e-05
 2.1580427e-05
 1.6534846e-05
 9.4143693e-06
 0.0000000e+00
-1.1759732e-05
-2.5246193e-05
-3.9673223e-05
-5.4254664e-05
-6.8204356e-05
-8.0736139e-05
-9.1063854e-05
-9.8401342e-05
-1.0196244e-04
-1.0096100e-04
-9.4610847e-05
-8.2125831e-05
-6.2719791e-05
-3.5606567e-05
 0.0000000e+00
 4.4267436e-05
 9.4888733e-05
 1.4893825e-04
 2.0349034e-04
 2.5561937e-04
 3.0239970e-04
 3.4090567e-04
 3.6821166e-04
 3.8139202e-04
 3.7752111e-04
 3.5367328e-04
 3.0692290e-04
 2.3434432e-04
 1.3301190e-04
 0.0000000e+00
-1.6699446e-04
-3.6778429e-04
-6.0155977e-04
-8.6751115e-04
-1.1648287e-03
-1.4927027e-03
-1.8503233e-03
-2.2368809e-03
-2.6515656e-03
-3.0935679e-03
-3.5620778e-03
-4.0562858e-03
-4.5753819e-03
-5.1185566e-03
-5.6850000e-03
-6.2753178e-03
-6.8957767e-03
-7.5540592e-03
-8.2578472e-03
-9.0148231e-03
-9.8326691e-03
-1.0719067e-02
-1.1681700e-02
-1.2728249e-02
-1.3866398e-02
-1.5103827e-02
-1.6448220e-02
-1.7907258e-02
-1.9488624e-02
-2.1200000e-02
-2.3053000e-02
-2.5074964e-02
-2.7297164e-02
-2.9750872e-02
-3.2467360e-02
-3.5477901e-02
-3.8813766e-02
-4.2506227e-02
-4.6586557e-02
-5.1086026e-02
-5.6035908e-02
-6.1467475e-02
-6.7411997e-02
-7.3900749e-02
-8.0965000e-02
-8.8608417e-02
-9.6724236e-02
-1.0517809e-01
-1.1383560e-01
-1.2256240e-01
-1.3122413e-01
-1.3968640e-01
-1.4781486e-01
-1.5547512e-01
-1.6253283e-01
-1.6885361e-01
-1.7430308e-01
-1.7874689e-01
-1.8205065e-01
-1.8408000e-01
-1.8468989e-01
-1.8369259e-01
-1.8088965e-01
-1.7608267e-01
-1.6907322e-01
-1.5966287e-01
-1.4765321e-01
-1.3284582e-01
-1.1504227e-01
-9.4044134e-02
-6.9652999e-02
-4.1670441e-02
-9.8980361e-03
 2.5862637e-02
 6.5810000e-02
 1.1001908e-01
 1.5807134e-01
 2.0942485e-01
 2.6353766e-01
 3.1986786e-01
 3.7787349e-01
 4.3701263e-01
 4.9674335e-01
 5.5652371e-01
 6.1581177e-01
 6.7406561e-01
 7.3074328e-01
 7.8530286e-01
 8.3720241e-01
 8.8590000e-01
 9.3090794e-01
 9.7195557e-01
 1.0088265e+00
 1.0413042e+00
 1.0691723e+00
 1.0922145e+00
 1.1102143e+00
 1.1229552e+00
 1.1302208e+00
 1.1317948e+00
 1.1274607e+00
 1.1170021e+00
 1.1002026e+00
 1.0768457e+00
 1.0467150e+00
 1.0097505e+00
 9.6651768e-01
 9.1773830e-01
 8.6413420e-01
 8.0642721e-01
 7.4533917e-01
 6.8159188e-01
 6.1590718e-01
 5.4900689e-01
 4.8161284e-01
 4.1444685e-01
 3.4823074e-01
 2.8368635e-01
 2.2153549e-01
 1.6250000e-01
 1.0717288e-01
 5.5631911e-02
 7.8260455e-03
-3.6295756e-02
-7.6784534e-02
-1.1369133e-01
-1.4706718e-01
-1.7696313e-01
-2.0343023e-01
-2.2651950e-01
-2.4628199e-01
-2.6276875e-01
-2.7603081e-01
-2.8611921e-01
-2.9308500e-01
-2.9701131e-01
-2.9810969e-01
-2.9662376e-01
-2.9279716e-01
-2.8687352e-01
-2.7909649e-01
-2.6970969e-01
-2.5895677e-01
-2.4708135e-01
-2.3432707e-01
-2.2093756e-01
-2.0715647e-01
-1.9322742e-01
-1.7939405e-01
-1.6590000e-01
-1.5294796e-01
-1.4057684e-01
-1.2878462e-01
-1.1756927e-01
-1.0692878e-01
-9.6861106e-02
-8.7364235e-02
-7.8436137e-02
-7.0074788e-02
-6.2278162e-02
-5.5044235e-02
-4.8370980e-02
-4.2256373e-02
-3.6698388e-02
-3.1695000e-02
-2.7238673e-02
-2.3299829e-02
-1.9843377e-02
-1.6834229e-02
-1.4237294e-02
-1.2017484e-02
-1.0139708e-02
-8.5688767e-03
-7.2699013e-03
-6.2076918e-03
-5.3471587e-03
-4.6532126e-03
-4.0907638e-03
-3.6247227e-03
-3.2200000e-03
-2.8472404e-03
-2.5000262e-03
-2.1776742e-03
-1.8795012e-03
-1.6048240e-03
-1.3529591e-03
-1.1232235e-03
-9.1493388e-04
-7.2740694e-04
-5.5995945e-04
-4.1190817e-04
-2.8256983e-04
-1.7126119e-04
-7.7298999e-05
 0.0000000e+00
 6.1430312e-05
 1.0823147e-04
 1.4175425e-04
 1.6334944e-04
 1.7436783e-04
 1.7616020e-04
 1.7007733e-04
 1.5747001e-04
 1.3968902e-04
 1.1808515e-04
 9.4009179e-05
 6.8811895e-05
 4.3844081e-05
 2.0456521e-05
 0.0000000e+00
-1.6460153e-05
-2.9000428e-05
-3.7982770e-05
-4.3769123e-05
-4.6721433e-05
-4.7201645e-05
-4.5571702e-05
-4.2193550e-05
-3.7429134e-05
-3.1640399e-05
-2.5189289e-05
-1.8437749e-05
-1.1747725e-05
-5.4811599e-06
 0.0000000e+00
 4.4103003e-06
 7.7702460e-06
 1.0176832e-05
 1.1727054e-05
 1.2517906e-05
 1.2646383e-05
 1.2209481e-05
 1.1304194e-05
 1.0027518e-05
 8.4764470e-06
 6.7479767e-06
 4.9391018e-06
 3.1468174e-06
 1.4681185e-06
 0.0000000e+00
-1.1810480e-06
-2.0805557e-06
-2.7245583e-06
-3.1390910e-06
-3.3501890e-06
-3.3838874e-06
-3.2662214e-06
-3.0232263e-06
-2.6809373e-06
-2.2653894e-06
-1.8026180e-06
-1.3186581e-06
-8.3954504e-07
-3.9131394e-07
 0.0000000e+00
 3.1389174e-07
 5.5197689e-07
 7.2140118e-07
 8.2931038e-07
 8.8285023e-07
 8.8916649e-07
 8.5540490e-07
 7.8871123e-07
 6.9623121e-07
 5.8511060e-07
 4.6249515e-07
 3.3553062e-07
 2.1136275e-07
 9.7137290e-08
 0.0000000e+00
-7.4518967e-08
-1.2735183e-07
-1.6104641e-07
-1.7815052e-07
-1.8121198e-07
-1.7277859e-07
-1.5539819e-07
-1.3161857e-07
-1.0398757e-07
-7.5052987e-08
-4.7362646e-08
-2.3464361e-08
-5.9059483e-09
 2.7647774e-09
 0.0000000e+00
-1.5815875e-08
-4.2569557e-08
-7.7215534e-08
-1.1670830e-07
-1.5800233e-07
-1.9805212e-07
-2.3381216e-07
-2.6223694e-07
-2.8028094e-07
-2.8489865e-07
-2.7304457e-07
-2.4167317e-07
-1.8773895e-07
-1.0819640e-07
 0.0000000e+00
 1.3778247e-07
 2.9763006e-07
 4.6990855e-07
 6.4498370e-07
 8.1322129e-07
 9.6498707e-07
 1.0906468e-06
 1.1805663e-06
 1.2251113e-06
 1.2146476e-06
 1.1395409e-06
 9.9015705e-07
 7.5686176e-07
 4.3002082e-07
 0.0000000e+00
-5.3531399e-07
-1.1479507e-06
-1.8024187e-06
-2.4632265e-06
-3.0948828e-06
-3.6618962e-06
-4.1287752e-06
-4.4600284e-06
-4.6201643e-06
-4.5736917e-06
-4.2851191e-06
-3.7189550e-06
-2.8397081e-06
-1.6118869e-06
 0.0000000e+00
 2.0034735e-06
 4.2941727e-06
 6.7397661e-06
 9.2079224e-06
 1.1566310e-05
 1.3682598e-05
 1.5424454e-05
 1.6659547e-05
 1.7255546e-05
 1.7080119e-05
 1.6000935e-05
 1.3885663e-05
 1.0601971e-05
 6.0175267e-06
 0.0000000e+00
-7.4785800e-06
-1.6028740e-05
-2.5156646e-05
-3.4368463e-05
-4.3170357e-05
-5.1068494e-05
-5.7569040e-05
-6.2178160e-05
-6.4402020e-05
-6.3746786e-05
-5.9718623e-05
-5.1823697e-05
-3.9568174e-05
-2.2458220e-05
 0.0000000e+00
 2.7910847e-05
 5.9820787e-05
 9.3886817e-05
 1.2826593e-04
 1.6111512e-04
 1.9059138e-04
 2.1485171e-04
 2.3205309e-04
 2.4035253e-04
 2.3790702e-04
 2.2287356e-04
 1.9340913e-04
 1.4767073e-04
 8.3815353e-05
 0.0000000e+00
-1.0416481e-04
-2.2325441e-04
-3.5039062e-04
-4.7869525e-04
-6.0129012e-04
-7.1129702e-04
-8.0183778e-04
-8.6603421e-04
-8.9700812e-04
-8.8788131e-04
-8.3177560e-04
-7.2181280e-04
-5.5111473e-04
-3.1280319e-04
 0.0000000e+00
 3.9245653e-04
 8.6286204e-04
 1.4077957e-03
 2.0238366e-03
 2.7075639e-03
 3.4555567e-03
 4.2643942e-03
 5.1306556e-03
 6.0509199e-03
 7.0217664e-03
 8.0397740e-03
 9.1015221e-03
 1.0203590e-02
 1.1342556e-02
 1.2515000e-02
 1.3718339e-02
 1.4953340e-02
 1.6221608e-02
 1.7524749e-02
 1.8864368e-02
 2.0242070e-02
 2.1659461e-02
 2.3118145e-02
 2.4619728e-02
 2.6165816e-02
 2.7758013e-02
 2.9397924e-02
 3.1087156e-02
 3.2827313e-02
 3.4620000e-02
 3.6466707e-02
 3.8368461e-02
 4.0326173e-02
 4.2340753e-02
 4.4413112e-02
 4.6544163e-02
 4.8734814e-02
 5.0985979e-02
 5.3298566e-02
 5.5673489e-02
 5.8111656e-02
 6.0613980e-02
 6.3181371e-02
 6.5814741e-02
 6.8515000e-02
 7.1282981e-02
 7.4119201e-02
 7.7024102e-02
 7.9998122e-02
 8.3041701e-02
 8.6155279e-02
 8.9339296e-02
 9.2594192e-02
 9.5920406e-02
 9.9318378e-02
 1.0278855e-01
 1.0633135e-01
 1.0994724e-01
 1.1363664e-01
 1.1740000e-01
 1.2123748e-01
 1.2514816e-01
 1.2913082e-01
 1.3318427e-01
 1.3730731e-01
 1.4149872e-01
 1.4575731e-01
 1.5008188e-01
 1.5447121e-01
 1.5892411e-01
 1.6343938e-01
 1.6801580e-01
 1.7265218e-01
 1.7734732e-01
 1.8210000e-01
 1.8690881e-01
 1.9177146e-01
 1.9668542e-01
 2.0164818e-01
 2.0665722e-01
 2.1171004e-01
 2.1680411e-01
 2.2193692e-01
 2.2710595e-01
 2.3230870e-01
 2.3754263e-01
 2.4280525e-01
 2.4809402e-01
 2.5340644e-01
 2.5874000e-01
 2.6409194e-01
 2.6945859e-01
 2.7483603e-01
 2.8022037e-01
 2.8560769e-01
 2.9099408e-01
 2.9637564e-01
 3.0174845e-01
 3.0710862e-01
 3.1245222e-01
 3.1777535e-01
 3.2307410e-01
 3.2834456e-01
 3.3358283e-01
 3.3878500e-01
 3.4394700e-01
 3.4906414e-01
 3.5413157e-01
 3.5914445e-01
 3.6409794e-01
 3.6898719e-01
 3.7380735e-01
 3.7855358e-01
 3.8322102e-01
 3.8780485e-01
 3.9230020e-01
 3.9670224e-01
 4.0100612e-01
 4.0520698e-01
 4.0930000e-01
 4.1328052e-01
 4.1714471e-01
 4.2088893e-01
 4.2450955e-01
 4.2800295e-01
 4.3136548e-01
 4.3459352e-01
 4.3768342e-01
 4.4063157e-01
 4.4343432e-01
 4.4608804e-01
 4.4858910e-01
 4.5093387e-01
 4.5311872e-01
 4.5514000e-01
 4.5699708e-01
 4.5870125e-01
 4.6026679e-01
 4.6170800e-01
 4.6303915e-01
 4.6427452e-01
 4.6542841e-01
 4.6651510e-01
 4.6754886e-01
 4.6854398e-01
 4.6951476e-01
 4.7047546e-01
 4.7144038e-01
 4.7242380e-01
 4.7344000e-01
 4.7449774e-01
 4.7558368e-01
 4.7667894e-01
 4.7776465e-01
 4.7882194e-01
 4.7983194e-01
 4.8077578e-01
 4.8163458e-01
 4.8238948e-01
 4.8302160e-01
 4.8351206e-01
 4.8384201e-01
 4.8399256e-01
 4.8394485e-01
 4.8368000e-01
 4.8318367e-01
 4.8245963e-01
 4.8151617e-01
 4.8036159e-01
 4.7900419e-01
 4.7745226e-01
 4.7571410e-01
 4.7379800e-01
 4.7171227e-01
 4.6946519e-01
 4.6706506e-01
 4.6452018e-01
 4.6183885e-01
 4.5902936e-01
 4.5610000e-01
 4.5305793e-01
 4.4990573e-01
 4.4664482e-01
 4.4327662e-01
 4.3980258e-01
 4.3622412e-01
 4.3254268e-01
 4.2875967e-01
 4.2487653e-01
 4.2089469e-01
 4.1681557e-01
 4.1264062e-01
 4.0837125e-01
 4.0400890e-01
 3.9955500e-01
 3.9501131e-01
 3.9038097e-01
 3.8566745e-01
 3.8087421e-01
 3.7600473e-01
 3.7106248e-01
 3.6605092e-01
 3.6097353e-01
 3.5583378e-01
 3.5063514e-01
 3.4538107e-01
 3.4007506e-01
 3.3472056e-01
 3.2932105e-01
 3.2388000e-01
 3.1840087e-01
 3.1288706e-01
 3.0734199e-01
 3.0176905e-01
 2.9617164e-01
 2.9055317e-01
 2.8491702e-01
 2.7926662e-01
 2.7360534e-01
 2.6793661e-01
 2.6226381e-01
 2.5659035e-01
 2.5091963e-01
 2.4525504e-01
 2.3960000e-01
 2.3395792e-01
 2.2833230e-01
 2.2272667e-01
 2.1714454e-01
 2.1158944e-01
 2.0606490e-01
 2.0057443e-01
 1.9512155e-01
 1.8970980e-01
 1.8434268e-01
 1.7902373e-01
 1.7375647e-01
 1.6854441e-01
 1.6339108e-01
 1.5830000e-01
 1.5327419e-01
 1.4831466e-01
 1.4342191e-01
 1.3859643e-01
 1.3383873e-01
 1.2914932e-01
 1.2452869e-01
 1.1997734e-01
 1.1549578e-01
 1.1108451e-01
 1.0674402e-01
 1.0247483e-01
 9.8277423e-02
 9.4152314e-02
 9.0100000e-02
 8.6120434e-02
 8.2211373e-02
 7.8370028e-02
 7.4593609e-02
 7.0879324e-02
 6.7224383e-02
 6.3625997e-02
 6.0081374e-02
 5.6587724e-02
 5.3142257e-02
 4.9742183e-02
 4.6384710e-02
 4.3067049e-02
 3.9786409e-02
 3.6540000e-02
 3.3327963e-02
 3.0162169e-02
 2.7057420e-02
 2.4028519e-02
 2.1090267e-02
 1.8257467e-02
 1.5544922e-02
 1.2967433e-02
 1.0539804e-02
 8.2768359e-03
 6.1933317e-03
 4.3040937e-03
 2.6239242e-03
 1.1676255e-03
-5.0000000e-05
-1.0201920e-03
-1.7583586e-03
-2.2859498e-03
-2.6244158e-03
-2.7952066e-03
-2.8197723e-03
-2.7195630e-03
-2.5160288e-03
-2.2306198e-03
-1.8847861e-03
-1.4999778e-03
-1.0976449e-03
-6.9923758e-04
-3.2620592e-04
 0.0000000e+00
 2.6246700e-04
 4.6242952e-04
 6.0565891e-04
 6.9792653e-04
 7.4500373e-04
 7.5266185e-04
 7.2667226e-04
 6.7280631e-04
 5.9683534e-04
 5.0453071e-04
 4.0166378e-04
 2.9400588e-04
 1.8732839e-04
 8.7402644e-05
 0.0000000e+00
-7.0327820e-05
-1.2390762e-04
-1.6228582e-04
-1.8700885e-04
-1.9962315e-04
-2.0167514e-04
-1.9471125e-04
-1.8027791e-04
-1.5992155e-04
-1.3518860e-04
-1.0762548e-04
-7.8778639e-05
-5.0194491e-05
-2.3419468e-05
 0.0000000e+00
 1.8844283e-05
 3.3200946e-05
 4.3484353e-05
 5.0108870e-05
 5.3488861e-05
 5.4038690e-05
 5.2172721e-05
 4.8305319e-05
 4.2850849e-05
 3.6223675e-05
 2.8838162e-05
 2.1108673e-05
 1.3449573e-05
 6.2752275e-06
 0.0000000e+00
-5.0493103e-06
-8.8961666e-06
-1.1651597e-05
-1.3426631e-05
-1.4332297e-05
-1.4479623e-05
-1.3979638e-05
-1.2943371e-05
-1.1481850e-05
-9.7061045e-06
-7.7271621e-06
-5.6560518e-06
-3.6038023e-06
-1.6814421e-06
 0.0000000e+00
 1.3529586e-06
 2.3837206e-06
 3.1220361e-06
 3.5976550e-06
 3.8403274e-06
 3.8798034e-06
 3.7458328e-06
 3.4681659e-06
 3.0765526e-06
 2.6007429e-06
 2.0704868e-06
 1.5155345e-06
 9.6563591e-07
 4.5054106e-07
 0.0000000e+00
-3.6252417e-07
-6.3871602e-07
-8.3654706e-07
-9.6398876e-07
-1.0290126e-06
-1.0395902e-06
-1.0036929e-06
-9.2929226e-07
-8.2435978e-07
-6.9686696e-07
-5.5478529e-07
-4.0608626e-07
-2.5874137e-07
-1.2072212e-07
 0.0000000e+00
 9.7138062e-08
 1.7114345e-07
 2.2415212e-07
 2.5830003e-07
 2.7572312e-07
 2.7855737e-07
 2.6893872e-07
 2.4900314e-07
 2.2088657e-07
 1.8672497e-07
 1.4865430e-07
 1.0881051e-07
 6.9329558e-08
 3.2347404e-08
 0.0000000e+00
-2.6028077e-08
-4.5857775e-08
-6.0061420e-08
-6.9211339e-08
-7.3879859e-08
-7.4639306e-08
-7.2062008e-08
-6.6720291e-08
-5.9186482e-08
-5.0032908e-08
-3.9831896e-08
-2.9155772e-08
-1.8576864e-08
-8.6674973e-09
 0.0000000e+00
 6.9742479e-09
 1.2287651e-08
 1.6093562e-08
 1.8545332e-08
 1.9796311e-08
 1.9999853e-08
 1.9309308e-08
 1.7878027e-08
 1.5859362e-08
 1.3406666e-08
 1.0673288e-08
 7.8125812e-09
 4.9778966e-09
 2.3225857e-09
 0.0000000e+00
-1.8689141e-09
-3.2928306e-09
-4.3128289e-09
-4.9699879e-09
-5.3053870e-09
-5.3601053e-09
-5.1752219e-09
-4.7918162e-09
-4.2509672e-09
-3.5937542e-09
-2.8612564e-09
-2.0945528e-09
-1.3347228e-09
-6.2284545e-10
 0.0000000e+00
 5.0140846e-10
 8.8367108e-10
 1.1577531e-09
 1.3346198e-09
 1.4252364e-09
 1.4405682e-09
 1.3915803e-09
 1.2892380e-09
 1.1445066e-09
 9.6835135e-10
 7.7173741e-10
 5.6563007e-10
 3.6099456e-10
 1.6879612e-10
 2.8587362e-23
-1.3671973e-10
-2.4185369e-10
-3.1818365e-10
-3.6849140e-10
-3.9555872e-10
-4.0216738e-10
-3.9109918e-10
-3.6513588e-10
-3.2705928e-10
-2.7965116e-10
-2.2569329e-10
-1.6796746e-10
-1.0925544e-10
-5.2339032e-11
 0.0000000e+00
 4.5470480e-11
 8.3743680e-11
 1.1498149e-10
 1.3934578e-10
 1.5699844e-10
 1.6810137e-10
 1.7281643e-10
 1.7130551e-10
 1.6373050e-10
 1.5025329e-10
 1.3103575e-10
 1.0623976e-10
 7.6027221e-11
 4.0560005e-11
 0.0000000e+00
-4.5162185e-11
-9.3121030e-11
-1.4174229e-10
-1.8889171e-10
-2.3243506e-10
-2.7023808e-10
-3.0016653e-10
-3.2008617e-10
-3.2786273e-10
-3.2136199e-10
-2.9844969e-10
-2.5699159e-10
-1.9485344e-10
-1.0990099e-10
 0.0000000e+00
 1.3517826e-10
 2.8874044e-10
 4.5198767e-10
 6.1622108e-10
 7.7274180e-10
 9.1285097e-10
 1.0278497e-09
 1.1090392e-09
 1.1477204e-09
 1.1351947e-09
 1.0627630e-09
 9.2172660e-10
 7.0338653e-10
 3.9904396e-10
 0.0000000e+00
-4.9555085e-10
-1.0618407e-09
-1.6662084e-09
-2.2759926e-09
-2.8585321e-09
-3.3811658e-09
-3.8112323e-09
-4.1160704e-09
-4.2630190e-09
-4.2194167e-09
-3.9526024e-09
-3.4299148e-09
-2.6186927e-09
-1.4862748e-09
 0.0000000e+00
 1.8470252e-09
 3.9586225e-09
 6.2128459e-09
 8.4877493e-09
 1.0661387e-08
 1.2611812e-08
 1.4217079e-08
 1.5355243e-08
 1.5904356e-08
 1.5742472e-08
 1.4747647e-08
 1.2797933e-08
 9.7713842e-09
 5.5460554e-09
 0.0000000e+00
-6.8925498e-09
-1.4772649e-08
-2.3185175e-08
-3.1675005e-08
-3.9787015e-08
-4.7066083e-08
-5.3057086e-08
-5.7304900e-08
-5.9354403e-08
-5.8750472e-08
-5.5037984e-08
-4.7761816e-08
-3.6466844e-08
-2.0697947e-08
 0.0000000e+00
 2.5723174e-08
 5.5131974e-08
 8.6527854e-08
 1.1821227e-07
 1.4848667e-07
 1.7565252e-07
 1.9801126e-07
 2.1386436e-07
 2.2151326e-07
 2.1925942e-07
 2.0540429e-07
 1.7824933e-07
 1.3609599e-07
 7.7245731e-08
 0.0000000e+00
-9.6000146e-08
-2.0575525e-07
-3.2292624e-07
-4.4117407e-07
-5.5415968e-07
-6.5554399e-07
-7.3898797e-07
-7.9815253e-07
-8.2669863e-07
-8.1828719e-07
-7.6657917e-07
-6.6523550e-07
-5.0791713e-07
-2.8828498e-07
 0.0000000e+00
 3.5827741e-07
 7.6788901e-07
 1.2051771e-06
 1.6464840e-06
 2.0681520e-06
 2.4465235e-06
 2.7579406e-06
 2.9787458e-06
 3.0852812e-06
 3.0538894e-06
 2.8609124e-06
 2.4826927e-06
 1.8955725e-06
 1.0758942e-06
 0.0000000e+00
-1.3371095e-06
-2.8658008e-06
-4.4977822e-06
-6.1447620e-06
-7.7184485e-06
-9.1305498e-06
-1.0292774e-05
-1.1116831e-05
-1.1514426e-05
-1.1397270e-05
-1.0677070e-05
-9.2655352e-06
-7.0743729e-06
-4.0152917e-06
 0.0000000e+00
 4.9901606e-06
 1.0695314e-05
 1.6785952e-05
 2.2932564e-05
 2.8805642e-05
 3.4075676e-05
 3.8413157e-05
 4.1488576e-05
 4.2972424e-05
 4.2535192e-05
 3.9847369e-05
 3.4579448e-05
 2.6401919e-05
 1.4985273e-05
 3.1146960e-18
-1.8623533e-05
-3.9915456e-05
-6.2646025e-05
-8.5585494e-05
-1.0750412e-04
-1.2717215e-04
-1.4335985e-04
-1.5483747e-04
-1.6037527e-04
-1.5874350e-04
-1.4871241e-04
-1.2905226e-04
-9.8533304e-05
-5.5925799e-05
 0.0000000e+00
 7.3195822e-05
 1.7850132e-04
 3.3347815e-04
 5.5568793e-04
 8.6269231e-04
 1.2720529e-03
 1.8013314e-03
 2.4680895e-03
 3.2898887e-03
 4.2842906e-03
 5.4688571e-03
 6.8611496e-03
 8.4787298e-03
 1.0339159e-02
 1.2460000e-02
 1.4853508e-02
 1.7510722e-02
 2.0417373e-02
 2.3559195e-02
 2.6921920e-02
 3.0491280e-02
 3.4253009e-02
 3.8192838e-02
 4.2296501e-02
 4.6549729e-02
 5.0938256e-02
 5.5447814e-02
 6.0064136e-02
 6.4772953e-02
 6.9560000e-02
 7.4412982e-02
 7.9327505e-02
 8.4301148e-02
 8.9331490e-02
 9.4416109e-02
 9.9552585e-02
 1.0473850e-01
 1.0997143e-01
 1.1524895e-01
 1.2056864e-01
 1.2592809e-01
 1.3132487e-01
 1.3675657e-01
 1.4222075e-01
 1.4771500e-01
 1.5323501e-01
 1.5876888e-01
 1.6430283e-01
 1.6982309e-01
 1.7531587e-01
 1.8076738e-01
 1.8616384e-01
 1.9149148e-01
 1.9673650e-01
 2.0188514e-01
 2.0692359e-01
 2.1183809e-01
 2.1661484e-01
 2.2124007e-01
 2.2570000e-01
 2.2998211e-01
 2.3407897e-01
 2.3798444e-01
 2.4169234e-01
 2.4519654e-01
 2.4849086e-01
 2.5156917e-01
 2.5442529e-01
 2.5705307e-01
 2.5944637e-01
 2.6159901e-01
 2.6350486e-01
 2.6515774e-01
 2.6655151e-01
 2.6768000e-01
 2.6853830e-01
 2.6912639e-01
 2.6944550e-01
 2.6949686e-01
 2.6928169e-01
 2.6880121e-01
 2.6805664e-01
 2.6704922e-01
 2.6578016e-01
 2.6425069e-01
 2.6246203e-01
 2.6041541e-01
 2.5811205e-01
 2.5555317e-01
 2.5274000e-01
 2.4967581e-01
 2.4637207e-01
 2.4284227e-01
 2.3909993e-01
 2.3515856e-01
 2.3103167e-01
 2.2673276e-01
 2.2227534e-01
 2.1767293e-01
 2.1293903e-01
 2.0808715e-01
 2.0313080e-01
 1.9808348e-01
 1.9295871e-01
 1.8777000e-01
 1.8253003e-01
 1.7724825e-01
 1.7193326e-01
 1.6659369e-01
 1.6123814e-01
 1.5587525e-01
 1.5051361e-01
 1.4516186e-01
 1.3982860e-01
 1.3452245e-01
 1.2925204e-01
 1.2402597e-01
 1.1885286e-01
 1.1374133e-01
 1.0870000e-01
 1.0373627e-01
 9.8852666e-02
 9.4050524e-02
 8.9331163e-02
 8.4695905e-02
 8.0146073e-02
 7.5682990e-02
 7.1307978e-02
 6.7022360e-02
 6.2827459e-02
 5.8724598e-02
 5.4715098e-02
 5.0800284e-02
 4.6981477e-02
 4.3260000e-02
 3.9638309e-02
 3.6123390e-02
 3.2723363e-02
 2.9446346e-02
 2.6300460e-02
 2.3293823e-02
 2.0434555e-02
 1.7730775e-02
 1.5190602e-02
 1.2822156e-02
 1.0633556e-02
 8.6329207e-03
 6.8283702e-03
 5.2280236e-03
 3.8400000e-03
 2.6682649e-03
 1.7001679e-03
 9.1890467e-04
 3.0767083e-04
-1.5033793e-04
-4.7192595e-04
-6.7389756e-04
-7.7305709e-04
-7.8620890e-04
-7.3015729e-04
-6.2170663e-04
-4.7766123e-04
-3.1482544e-04
-1.5000358e-04
 0.0000000e+00
 1.2162692e-04
 2.1430261e-04
 2.8069844e-04
 3.2348579e-04
 3.4533602e-04
 3.4892053e-04
 3.3691067e-04
 3.1197784e-04
 2.7679339e-04
 2.3402872e-04
 1.8635519e-04
 1.3644417e-04
 8.6967055e-05
 4.0595205e-05
 7.2442052e-18
-3.2710387e-05
-5.7680586e-05
-7.5618431e-05
-8.7231754e-05
-9.3228388e-05
-9.4316165e-05
-9.1202918e-05
-8.4596480e-05
-7.5204683e-05
-6.3735360e-05
-5.0896344e-05
-3.7395467e-05
-2.3940563e-05
-1.1239463e-05
 0.0000000e+00
 9.2146240e-06
 1.6419733e-05
 2.1775284e-05
 2.5441230e-05
 2.7577527e-05
 2.8344131e-05
 2.7900997e-05
 2.6408081e-05
 2.4025337e-05
 2.0912721e-05
 1.7230189e-05
 1.3137695e-05
 8.7951958e-06
 4.3626455e-06
 0.0000000e+00
-4.1481095e-06
-7.9983476e-06
-1.1482703e-05
-1.4533165e-05
-1.7081721e-05
-1.9060360e-05
-2.0401072e-05
-2.1035844e-05
-2.0896666e-05
-1.9915526e-05
-1.8024412e-05
-1.5155314e-05
-1.1240220e-05
-6.2111195e-06
 0.0000000e+00
 7.3778139e-06
 1.5573657e-05
 2.4155529e-05
 3.2691429e-05
 4.0749356e-05
 4.7897310e-05
 5.3703290e-05
 5.7735295e-05
 5.9561326e-05
 5.8749381e-05
 5.4867460e-05
 4.7483562e-05
 3.6165686e-05
 2.0481832e-05
 0.0000000e+00
-2.5363146e-05
-5.4296281e-05
-8.5139412e-05
-1.1623255e-04
-1.4591570e-04
-1.7252888e-04
-1.9441209e-04
-2.0990534e-04
-2.1734864e-04
-2.1508200e-04
-2.0144543e-04
-1.7477893e-04
-1.3342252e-04
-7.5716210e-05
 0.0000000e+00
 9.4074771e-05
 2.0161147e-04
 3.1640212e-04
 4.3223877e-04
 5.4291345e-04
 6.4221820e-04
 7.2394506e-04
 7.8188605e-04
 8.0983323e-04
 8.0157861e-04
 7.5091425e-04
 6.5163217e-04
 4.9752441e-04
 2.8238301e-04
 1.1790569e-16
-3.5363223e-04
-7.7371995e-04
-1.2532691e-03
-1.7852855e-03
-2.3627751e-03
-2.9787439e-03
-3.6261978e-03
-4.2981426e-03
-4.9875843e-03
-5.6875287e-03
-6.3909819e-03
-7.0909497e-03
-7.7804381e-03
-8.4524529e-03
-9.1000000e-03
-9.7209977e-03
-1.0333013e-02
-1.0958526e-02
-1.1620015e-02
-1.2339961e-02
-1.3140842e-02
-1.4045139e-02
-1.5075331e-02
-1.6253896e-02
-1.7603315e-02
-1.9146068e-02
-2.0904633e-02
-2.2901491e-02
-2.5159120e-02
-2.7700000e-02
-3.0544211e-02
-3.3702233e-02
-3.7182148e-02
-4.0992034e-02
-4.5139973e-02
-4.9634046e-02
-5.4482333e-02
-5.9692915e-02
-6.5273871e-02
-7.1233283e-02
-7.7579232e-02
-8.4319797e-02
-9.1463060e-02
-9.9017101e-02
-1.0699000e-01
-1.1535912e-01
-1.2397898e-01
-1.3267336e-01
-1.4126607e-01
-1.4958089e-01
-1.5744161e-01
-1.6467204e-01
-1.7109597e-01
-1.7653718e-01
-1.8081948e-01
-1.8376665e-01
-1.8520250e-01
-1.8495081e-01
-1.8283538e-01
-1.7868000e-01
-1.7231843e-01
-1.6362427e-01
-1.5248108e-01
-1.3877242e-01
-1.2238185e-01
-1.0319294e-01
-8.1089252e-02
-5.5954341e-02
-2.7671771e-02
 3.8748947e-03
 3.8802095e-02
 7.7226267e-02
 1.1926385e-01
 1.6503128e-01
 2.1464500e-01
 2.6808654e-01
 3.2479786e-01
 3.8408599e-01
 4.4525798e-01
 5.0762089e-01
 5.7048174e-01
 6.3314760e-01
 6.9492551e-01
 7.5512250e-01
 8.1304564e-01
 8.6800196e-01
 9.1929851e-01
 9.6624233e-01
 1.0081405e+00
 1.0443000e+00
 1.0741649e+00
 1.0977270e+00
 1.1151153e+00
 1.1264584e+00
 1.1318853e+00
 1.1315248e+00
 1.1255058e+00
 1.1139570e+00
 1.0970073e+00
 1.0747855e+00
 1.0474205e+00
 1.0150411e+00
 9.7777620e-01
 9.3575454e-01
 8.8910500e-01
 8.3803674e-01
 7.8308025e-01
 7.2484635e-01
 6.6394587e-01
 6.0098961e-01
 5.3658840e-01
 4.7135306e-01
 4.0589441e-01
 3.4082327e-01
 2.7675046e-01
 2.1428679e-01
 1.5404309e-01
 9.6630183e-02
 4.2658878e-02
-7.2600000e-03
-5.2645781e-02
-9.3538386e-02
-1.3010788e-01
-1.6252435e-01
-1.9095784e-01
-2.1557844e-01
-2.3655622e-01
-2.5406123e-01
-2.6826356e-01
-2.7933327e-01
-2.8744043e-01
-2.9275512e-01
-2.9544739e-01
-2.9568733e-01
-2.9364500e-01
-2.8949572e-01
-2.8343580e-01
-2.7566681e-01
-2.6639031e-01
-2.5580786e-01
-2.4412103e-01
-2.3153137e-01
-2.1824045e-01
-2.0444984e-01
-1.9036109e-01
-1.7617576e-01
-1.6209543e-01
-1.4832165e-01
-1.3505599e-01
-1.2250000e-01
-1.1081495e-01
-1.0000086e-01
-9.0017463e-02
-8.0824478e-02
-7.2381630e-02
-6.4648644e-02
-5.7585243e-02
-5.1151151e-02
-4.5306093e-02
-4.0009793e-02
-3.5221974e-02
-3.0902362e-02
-2.7010679e-02
-2.3506650e-02
-2.0350000e-02
-1.7504364e-02
-1.4949024e-02
-1.2667175e-02
-1.0642011e-02
-8.8567272e-03
-7.2945167e-03
-5.9385743e-03
-4.7720942e-03
-3.7782708e-03
-2.9402983e-03
-2.2413711e-03
-1.6646833e-03
-1.1934293e-03
-8.1080348e-04
-5.0000000e-04
-2.4627876e-04
-4.3161813e-05
 1.1376321e-04
 2.2890870e-04
 3.0668702e-04
 3.5151057e-04
 3.6779171e-04
 3.5994283e-04
 3.3237632e-04
 2.8950454e-04
 2.3573987e-04
 1.7549471e-04
 1.1318142e-04
 5.3212393e-05
 1.7455655e-17
-4.2936126e-05
-7.5647350e-05
-9.9077790e-05
-1.1417156e-04
-1.2187278e-04
-1.2312556e-04
-1.1887402e-04
-1.1006227e-04
-9.7634432e-05
-8.2534621e-05
-6.5706950e-05
-4.8095537e-05
-3.0644497e-05
-1.4297946e-05
 0.0000000e+00
 1.1504741e-05
 2.0269733e-05
 2.6547950e-05
 3.0592363e-05
 3.2655945e-05
 3.2991670e-05
 3.1852507e-05
 2.9491432e-05
 2.6161415e-05
 2.2115429e-05
 1.7606446e-05
 1.2887440e-05
 8.2113817e-06
 3.8312443e-06
 0.0000000e+00
-3.0828364e-06
-5.4315811e-06
-7.1140079e-06
-8.1978906e-06
-8.7510030e-06
-8.8411189e-06
-8.5360122e-06
-7.9034566e-06
-7.0112260e-06
-5.9270941e-06
-4.7188349e-06
-3.4542220e-06
-2.2010294e-06
-1.0270308e-06
 0.0000000e+00
 8.2660523e-07
 1.4565917e-06
 1.9080821e-06
 2.1991995e-06
 2.3480666e-06
 2.3728063e-06
 2.2915414e-06
 2.1223948e-06
 1.8834893e-06
 1.5929479e-06
 1.2688932e-06
 9.2944829e-07
 5.9273586e-07
 2.7687882e-07
 0.0000000e+00
-2.2358448e-07
-3.9478547e-07
-5.1832054e-07
-5.9890728e-07
-6.4126327e-07
-6.5010610e-07
-6.3015334e-07
-5.8612258e-07
-5.2273139e-07
-4.4469736e-07
-3.5673808e-07
-2.6357112e-07
-1.6991407e-07
-8.0484499e-08
 0.0000000e+00
 6.7732691e-08
 1.2255021e-07
 1.6520004e-07
 1.9642965e-07
 2.1698652e-07
 2.2761813e-07
 2.2907197e-07
 2.2209550e-07
 2.0743622e-07
 1.8584158e-07
 1.5805908e-07
 1.2483620e-07
 8.6920402e-08
 4.5059177e-08
 0.0000000e+00
-4.7346285e-08
-9.5415376e-08
-1.4247961e-07
-1.8681130e-07
-2.2668280e-07
-2.6036644e-07
-2.8613454e-07
-3.0225944e-07
-3.0701347e-07
-2.9866896e-07
-2.7549825e-07
-2.3577367e-07
-1.7776754e-07
-9.9752209e-08
 0.0000000e+00
 1.2165245e-07
 2.5911130e-07
 4.0471838e-07
 5.5081557e-07
 6.8974470e-07
 8.1384762e-07
 9.1546619e-07
 9.8694226e-07
 1.0206177e-06
 1.0088343e-06
 9.4393392e-07
 8.1825847e-07
 6.2414977e-07
 3.5394966e-07
 0.0000000e+00
-4.3926352e-07
-9.4102981e-07
-1.4763939e-06
-2.0164510e-06
-2.5322960e-06
-2.9950240e-06
-3.3757302e-06
-3.6455096e-06
-3.7754572e-06
-3.7366681e-06
-3.5002374e-06
-3.0372602e-06
-2.3188315e-06
-1.3160464e-06
 0.0000000e+00
 1.6354016e-06
 3.5050079e-06
 5.5008574e-06
 7.5149883e-06
 9.4394392e-06
 1.1166249e-05
 1.2587455e-05
 1.3595096e-05
 1.4081211e-05
 1.3937838e-05
 1.3057016e-05
 1.1330782e-05
 8.6511764e-06
 4.9102361e-06
 0.0000000e+00
-6.1023430e-06
-1.3079002e-05
-2.0527035e-05
-2.8043502e-05
-3.5225461e-05
-4.1669970e-05
-4.6974089e-05
-5.0734875e-05
-5.2549387e-05
-5.2014685e-05
-4.8727826e-05
-4.2285870e-05
-3.2285874e-05
-1.8324898e-05
 0.0000000e+00
 2.2773970e-05
 4.8811000e-05
 7.6607285e-05
 1.0465902e-04
 1.3146240e-04
 1.5551363e-04
 1.7530890e-04
 1.8934440e-04
 1.9611634e-04
 1.9412090e-04
 1.8185429e-04
 1.5781270e-04
 1.2049232e-04
 6.8389355e-05
 0.0000000e+00
-8.4667612e-05
-1.7955759e-04
-2.7710210e-04
-3.6973332e-04
-4.4988342e-04
-5.0998456e-04
-5.4246892e-04
-5.3976866e-04
-4.9431596e-04
-3.9854299e-04
-2.4488192e-04
-2.5764913e-05
 2.6637586e-04
 6.3910822e-04
 1.1000000e-03
 1.6545083e-03
 2.2996475e-03
 3.0303211e-03
 3.8414328e-03
 4.7278861e-03
 5.6845846e-03
 6.7064320e-03
 7.7883317e-03
 8.9251875e-03
 1.0111903e-02
 1.1343382e-02
 1.2614527e-02
 1.3920243e-02
 1.5255433e-02
 1.6615000e-02
 1.7995174e-02
 1.9397482e-02
 2.0824778e-02
 2.2279915e-02
 2.3765747e-02
 2.5285126e-02
 2.6840907e-02
 2.8435942e-02
 3.0073086e-02
 3.1755191e-02
 3.3485110e-02
 3.5265697e-02
 3.7099806e-02
 3.8990289e-02
 4.0940000e-02
 4.2951411e-02
 4.5025466e-02
 4.7162728e-02
 4.9363761e-02
 5.1629128e-02
 5.3959391e-02
 5.6355113e-02
 5.8816858e-02
 6.1345189e-02
 6.3940668e-02
 6.6603859e-02
 6.9335325e-02
 7.2135628e-02
 7.5005332e-02
 7.7945000e-02
 8.0955100e-02
 8.4035724e-02
 8.7186868e-02
 9.0408530e-02
 9.3700705e-02
 9.7063391e-02
 1.0049658e-01
 1.0400028e-01
 1.0757448e-01
 1.1121917e-01
 1.1493436e-01
 1.1872004e-01
 1.2257621e-01
 1.2650287e-01
 1.3050000e-01
 1.3456741e-01
 1.3870408e-01
 1.4290880e-01
 1.4718034e-01
 1.5151750e-01
 1.5591905e-01
 1.6038377e-01
 1.6491046e-01
 1.6949790e-01
 1.7414486e-01
 1.7885013e-01
 1.8361250e-01
 1.8843074e-01
 1.9330365e-01
 1.9823000e-01
 2.0320825e-01
 2.0823558e-01
 2.1330882e-01
 2.1842482e-01
 2.2358042e-01
 2.2877246e-01
 2.3399779e-01
 2.3925326e-01
 2.4453569e-01
 2.4984195e-01
 2.5516886e-01
 2.6051328e-01
 2.6587205e-01
 2.7124201e-01
 2.7662000e-01
 2.8200277e-01
 2.8738670e-01
 2.9276804e-01
 2.9814307e-01
 3.0350805e-01
 3.0885927e-01
 3.1419298e-01
 3.1950546e-01
 3.2479297e-01
 3.3005180e-01
 3.3527820e-01
 3.4046846e-01
 3.4561883e-01
 3.5072558e-01
 3.5578500e-01
 3.6079291e-01
 3.6574343e-01
 3.7063023e-01
 3.7544698e-01
 3.8018737e-01
 3.8484508e-01
 3.8941376e-01
 3.9388712e-01
 3.9825881e-01
 4.0252252e-01
 4.0667192e-01
 4.1070070e-01
 4.1460252e-01
 4.1837106e-01
 4.2200000e-01
 4.2548466e-01
 4.2882693e-01
 4.3203033e-01
 4.3509840e-01
 4.3803467e-01
 4.4084267e-01
 4.4352593e-01
 4.4608798e-01
 4.4853235e-01
 4.5086257e-01
 4.5308217e-01
 4.5519468e-01
 4.5720364e-01
 4.5911257e-01
 4.6092500e-01
 4.6264451e-01
 4.6427480e-01
 4.6581965e-01
 4.6728280e-01
 4.6866801e-01
 4.6997904e-01
 4.7121964e-01
 4.7239358e-01
 4.7350460e-01
 4.7455648e-01
 4.7555295e-01
 4.7649778e-01
 4.7739473e-01
 4.7824755e-01
 4.7906000e-01
 4.7983334e-01
 4.8055886e-01
 4.8122536e-01
 4.8182162e-01
 4.8233644e-01
 4.8275862e-01
 4.8307694e-01
 4.8328020e-01
 4.8335719e-01
 4.8329672e-01
 4.8308756e-01
 4.8271851e-01
 4.8217838e-01
 4.8145594e-01
 4.8054000e-01
 4.7942226e-01
 4.7810610e-01
 4.7659780e-01
 4.7490364e-01
 4.7302993e-01
 4.7098294e-01
 4.6876896e-01
 4.6639427e-01
 4.6386518e-01
 4.6118796e-01
 4.5836889e-01
 4.5541428e-01
 4.5233040e-01
 4.4912355e-01
 4.4580000e-01
 4.4236538e-01
 4.3882265e-01
 4.3517410e-01
 4.3142200e-01
 4.2756866e-01
 4.2361636e-01
 4.1956738e-01
 4.1542402e-01
 4.1118857e-01
 4.0686331e-01
 4.0245053e-01
 3.9795252e-01
 3.9337157e-01
 3.8870997e-01
 3.8397000e-01
 3.7915410e-01
 3.7426526e-01
 3.6930661e-01
 3.6428130e-01
 3.5919246e-01
 3.5404323e-01
 3.4883674e-01
 3.4357613e-01
 3.3826454e-01
 3.3290510e-01
 3.2750095e-01
 3.2205523e-01
 3.1657108e-01
 3.1105162e-01
 3.0550000e-01
 2.9991945e-01
 2.9431357e-01
 2.8868606e-01
 2.8304062e-01
 2.7738094e-01
 2.7171073e-01
 2.6603368e-01
 2.6035350e-01
 2.5467388e-01
 2.4899851e-01
 2.4333110e-01
 2.3767535e-01
 2.3203495e-01
 2.2641360e-01
 2.2081500e-01
 2.1524277e-01
 2.0970018e-01
 2.0419044e-01
 1.9871675e-01
 1.9328230e-01
 1.8789029e-01
 1.8254392e-01
 1.7724640e-01
 1.7200092e-01
 1.6681067e-01
 1.6167887e-01
 1.5660870e-01
 1.5160336e-01
 1.4666606e-01
 1.4180000e-01
 1.3700759e-01
 1.3228816e-01
 1.2764026e-01
 1.2306243e-01
 1.1855321e-01
 1.1411115e-01
 1.0973480e-01
 1.0542271e-01
 1.0117341e-01
 9.6985465e-02
 9.2857407e-02
 8.8787785e-02
 8.4775146e-02
 8.0818036e-02
 7.6915000e-02
 7.3065393e-02
 6.9271807e-02
 6.5537641e-02
 6.1866294e-02
 5.8261168e-02
 5.4725662e-02
 5.1263176e-02
 4.7877110e-02
 4.4570863e-02
 4.1347837e-02
 3.8211430e-02
 3.5165043e-02
 3.2212076e-02
 2.9355928e-02
 2.6600000e-02
 2.3947789e-02
 2.1403186e-02
 1.8970178e-02
 1.6652752e-02
 1.4454896e-02
 1.2380599e-02
 1.0433847e-02
 8.6186287e-03
 6.9389313e-03
 5.3987427e-03
 4.0020505e-03
 2.7528425e-03
 1.6551063e-03
 7.1282953e-04
-7.0000000e-05
-6.9236734e-04
-1.1651483e-03
-1.5021913e-03
-1.7173449e-03
-1.8244576e-03
-1.8373779e-03
-1.7699541e-03
-1.6360349e-03
-1.4494687e-03
-1.2241040e-03
-9.7378930e-04
-7.1237305e-04
-4.5370376e-04
-2.1162992e-04
 0.0000000e+00
 1.7026959e-04
 2.9999079e-04
 3.9290765e-04
 4.5276421e-04
 4.8330448e-04
 4.8827252e-04
 4.7141236e-04
 4.3646802e-04
 3.8718356e-04
 3.2730300e-04
 2.6057038e-04
 1.9072973e-04
 1.2152510e-04
 5.6700508e-05
 0.0000000e+00
-4.5623598e-05
-8.0382291e-05
-1.0527929e-04
-1.2131780e-04
-1.2950105e-04
-1.3083223e-04
-1.2631456e-04
-1.1695125e-04
-1.0374552e-04
-8.7700574e-05
-6.9819623e-05
-5.1105878e-05
-3.2562552e-05
-1.5192855e-05
 0.0000000e+00
 1.2224806e-05
 2.1538370e-05
 2.8209500e-05
 3.2507007e-05
 3.4699701e-05
 3.5056390e-05
 3.3845884e-05
 3.1336994e-05
 2.7798529e-05
 2.3499298e-05
 1.8708111e-05
 1.3693779e-05
 8.7251094e-06
 4.0709133e-06
 0.0000000e+00
-3.2756270e-06
-5.7711888e-06
-7.5587129e-06
-8.7102264e-06
-9.2977568e-06
-9.3933313e-06
-9.0689774e-06
-8.3967223e-06
-7.4485934e-06
-6.2966180e-06
-5.0128234e-06
-3.6692370e-06
-2.3378860e-06
-1.0907979e-06
 0.0000000e+00
 8.7770161e-07
 1.5463854e-06
 2.0253510e-06
 2.3338981e-06
 2.4913264e-06
 2.5169356e-06
 2.4300252e-06
 2.2498950e-06
 1.9958446e-06
 1.6871737e-06
 1.3431820e-06
 9.8316909e-07
 6.2643468e-07
 2.9227843e-07
 0.0000000e+00
-2.3517944e-07
-4.1435273e-07
-5.4269119e-07
-6.2536615e-07
-6.6754894e-07
-6.7441089e-07
-6.5112333e-07
-6.0285759e-07
-5.3478500e-07
-4.5207689e-07
-3.5990458e-07
-2.6343941e-07
-1.6785270e-07
-7.8315788e-08
-2.6346113e-20
 6.3016165e-08
 1.1102553e-07
 1.4541374e-07
 1.6756646e-07
 1.7886933e-07
 1.8070801e-07
 1.7446815e-07
 1.6153540e-07
 1.4329541e-07
 1.2113384e-07
 9.6436327e-08
 7.0588538e-08
 4.4976119e-08
 2.0984722e-08
 0.0000000e+00
-1.6885218e-08
-2.9749387e-08
-3.8963788e-08
-4.4899698e-08
-4.7928396e-08
-4.8421161e-08
-4.6749270e-08
-4.3284003e-08
-3.8396639e-08
-3.2458455e-08
-2.5840731e-08
-1.8914745e-08
-1.2051775e-08
-5.6231008e-09
 0.0000000e+00
 4.5247053e-09
 7.9720206e-09
 1.0441408e-08
 1.2032331e-08
 1.2844250e-08
 1.2976629e-08
 1.2528930e-08
 1.1600615e-08
 1.0291146e-08
 8.6999859e-09
 6.9265970e-09
 5.0704417e-09
 3.2309822e-09
 1.5076808e-09
 0.0000000e+00
-1.2136035e-09
-2.1386949e-09
-2.8018451e-09
-3.2296248e-09
-3.4486048e-09
-3.4853560e-09
-3.3664492e-09
-3.1184550e-09
-2.7679444e-09
-2.3414882e-09
-1.8656571e-09
-1.3670219e-09
-8.7215345e-10
-4.0762255e-10
 0.0000000e+00
 3.2970869e-10
 5.8275909e-10
 7.6597207e-10
 8.8616847e-10
 9.5016916e-10
 9.6479498e-10
 9.3686681e-10
 8.7320548e-10
 7.8063187e-10
 6.6596681e-10
 5.3603118e-10
 3.9764583e-10
 2.5763161e-10
 1.2280938e-10
 0.0000000e+00
-1.0523126e-10
-1.9234145e-10
-2.6204318e-10
-3.1504908e-10
-3.5207178e-10
-3.7382390e-10
-3.8101806e-10
-3.7436690e-10
-3.5458303e-10
-3.2237908e-10
-2.7846768e-10
-2.2356144e-10
-1.5837300e-10
-8.3614980e-11
 0.0000000e+00
 9.1216357e-11
 1.8660669e-10
 2.8220064e-10
 3.7402785e-10
 4.5811796e-10
 5.3050061e-10
 5.8720545e-10
 6.2426212e-10
 6.3770027e-10
 6.2354952e-10
 5.7783954e-10
 4.9659995e-10
 3.7586040e-10
 2.1165054e-10
 0.0000000e+00
-2.5963417e-10
-5.5408531e-10
-8.6675937e-10
-1.1810623e-09
-1.4804000e-09
-1.7481785e-09
-1.9678037e-09
-2.1226816e-09
-2.1962180e-09
-2.1718190e-09
-2.0328905e-09
-1.7628383e-09
-1.3450686e-09
-7.6298717e-10
 0.0000000e+00
 9.4732031e-10
 2.0297346e-09
 3.1848369e-09
 4.3502214e-09
 5.4634822e-09
 6.4622136e-09
 7.2840095e-09
 7.8664643e-09
 8.1471719e-09
 8.0637265e-09
 7.5537223e-09
 6.5547534e-09
 5.0044140e-09
 2.8402981e-09
 0.0000000e+00
-3.5296471e-09
-7.5648529e-09
-1.1872588e-08
-1.6219823e-08
-2.0373529e-08
-2.4100676e-08
-2.7168234e-08
-2.9343175e-08
-3.0392469e-08
-3.0083087e-08
-2.8181999e-08
-2.4456175e-08
-1.8672587e-08
-1.0598205e-08
 0.0000000e+00
 1.3171268e-08
 2.8229677e-08
 4.4305515e-08
 6.0529071e-08
 7.6030633e-08
 8.9940489e-08
 1.0138893e-07
 1.0950624e-07
 1.1342271e-07
 1.1226862e-07
 1.0517427e-07
 9.1269948e-08
 6.9685936e-08
 3.9552523e-08
 1.6557800e-20
-4.9155425e-08
-1.0535386e-07
-1.6534947e-07
-2.2589646e-07
-2.8374900e-07
-3.3566128e-07
-3.7838748e-07
-4.0868177e-07
-4.2329835e-07
-4.1899140e-07
-3.9251509e-07
-3.4062362e-07
-2.6007115e-07
-1.4761189e-07
 0.0000000e+00
 1.8345043e-07
 3.9318574e-07
 6.1709238e-07
 8.4305678e-07
 1.0589654e-06
 1.2527046e-06
 1.4121610e-06
 1.5252209e-06
 1.5797707e-06
 1.5636970e-06
 1.4648861e-06
 1.2712245e-06
 9.7059868e-07
 5.5089503e-07
 2.3028454e-19
-6.8464630e-07
-1.4673891e-06
-2.3030200e-06
-3.1463307e-06
-3.9521125e-06
-4.6751573e-06
-5.2702565e-06
-5.6922017e-06
-5.8957845e-06
-5.8357965e-06
-5.4670293e-06
-4.7442745e-06
-3.6223236e-06
-2.0559682e-06
 0.0000000e+00
 2.5551348e-06
 5.4763707e-06
 8.5949878e-06
 1.1742266e-05
 1.4749485e-05
 1.7447924e-05
 1.9668865e-05
 2.1243586e-05
 2.2003367e-05
 2.1779489e-05
 2.0403231e-05
 1.7705873e-05
 1.3518696e-05
 7.6729779e-06
 0.0000000e+00
-9.5358928e-06
-2.0438094e-05
-3.2076931e-05
-4.3822733e-05
-5.5045826e-05
-6.5116541e-05
-7.3405203e-05
-7.9282142e-05
-8.2117684e-05
-8.1282160e-05
-7.6145895e-05
-6.6079219e-05
-5.0452459e-05
-2.8635943e-05
 0.0000000e+00
 3.5588436e-05
 7.6276005e-05
 1.1971274e-04
 1.6354866e-04
 2.0543382e-04
 2.4301824e-04
 2.7395195e-04
 2.9588498e-04
 3.0646737e-04
 3.0334915e-04
 2.8418035e-04
 2.4661100e-04
 1.8829114e-04
 1.0687080e-04
 0.0000000e+00
-1.3281785e-04
-2.8466592e-04
-4.4677402e-04
-6.1037193e-04
-7.6668946e-04
-9.0695641e-04
-1.0224026e-03
-1.1042578e-03
-1.1437518e-03
-1.1321144e-03
-1.0605755e-03
-9.2036479e-04
-7.0271210e-04
-3.9884724e-04
 0.0000000e+00
 5.0245631e-04
 1.1165744e-03
 1.8502633e-03
 2.7114324e-03
 3.7079907e-03
 4.8478474e-03
 6.1389117e-03
 7.5890928e-03
 9.2062998e-03
 1.0998442e-02
 1.2973428e-02
 1.5139168e-02
 1.7503571e-02
 2.0074545e-02
 2.2860000e-02
 2.5864824e-02
 2.9081817e-02
 3.2500761e-02
 3.6111434e-02
 3.9903616e-02
 4.3867087e-02
 4.7991627e-02
 5.2267015e-02
 5.6683033e-02
 6.1229458e-02
 6.5896071e-02
 7.0672652e-02
 7.5548981e-02
 8.0514837e-02
 8.5560000e-02
 9.0674985e-02
 9.5853247e-02
 1.0108897e-01
 1.0637636e-01
 1.1170958e-01
 1.1708285e-01
 1.2249033e-01
 1.2792623e-01
 1.3338473e-01
 1.3886002e-01
 1.4434630e-01
 1.4983774e-01
 1.5532855e-01
 1.6081290e-01
 1.6628500e-01
 1.7173791e-01
 1.7716029e-01
 1.8253966e-01
 1.8786357e-01
 1.9311953e-01
 1.9829509e-01
 2.0337778e-01
 2.0835514e-01
 2.1321469e-01
 2.1794397e-01
 2.2253051e-01
 2.2696185e-01
 2.3122553e-01
 2.3530907e-01
 2.3920000e-01
 2.4288700e-01
 2.4636328e-01
 2.4962317e-01
 2.5266102e-01
 2.5547118e-01
 2.5804799e-01
 2.6038578e-01
 2.6247891e-01
 2.6432172e-01
 2.6590855e-01
 2.6723374e-01
 2.6829164e-01
 2.6907658e-01
 2.6958292e-01
 2.6980500e-01
 2.6973900e-01
 2.6938848e-01
 2.6875886e-01
 2.6785552e-01
 2.6668389e-01
 2.6524935e-01
 2.6355733e-01
 2.6161322e-01
 2.5942243e-01
 2.5699035e-01
 2.5432241e-01
 2.5142400e-01
 2.4830052e-01
 2.4495739e-01
 2.4140000e-01
 2.3763501e-01
 2.3367403e-01
 2.2952993e-01
 2.2521557e-01
 2.2074383e-01
 2.1612756e-01
 2.1137962e-01
 2.0651289e-01
 2.0154022e-01
 1.9647448e-01
 1.9132854e-01
 1.8611525e-01
 1.8084749e-01
 1.7553812e-01
 1.7020000e-01
 1.6484507e-01
 1.5948156e-01
 1.5411679e-01
 1.4875805e-01
 1.4341265e-01
 1.3808790e-01
 1.3279111e-01
 1.2752958e-01
 1.2231063e-01
 1.1714154e-01
 1.1202964e-01
 1.0698223e-01
 1.0200662e-01
 9.7110104e-02
 9.2300000e-02
 8.7582626e-02
 8.2960362e-02
 7.8434600e-02
 7.4006735e-02
 6.9678161e-02
 6.5450270e-02
 6.1324458e-02
 5.7302116e-02
 5.3384640e-02
 4.9573423e-02
 4.5869859e-02
 4.2275340e-02
 3.8791262e-02
 3.5419017e-02
 3.2160000e-02
 2.9016288e-02
 2.5992699e-02
 2.3094732e-02
 2.0327888e-02
 1.7697669e-02
 1.5209575e-02
 1.2869107e-02
 1.0681766e-02
 8.6530530e-03
 6.7884681e-03
 5.0935126e-03
 3.5736872e-03
 2.2344927e-03
 1.0814301e-03
 1.2000000e-04
-6.4798109e-04
-1.2354346e-03
-1.6589665e-03
-1.9351826e-03
-2.0806888e-03
-2.1120910e-03
-2.0459950e-03
-1.8990068e-03
-1.6877322e-03
-1.4287771e-03
-1.1387474e-03
-8.3424897e-04
-5.3188766e-04
-2.4826938e-04
 0.0000000e+00
 1.9981380e-04
 3.5206218e-04
 4.6113451e-04
 5.3142015e-04
 5.6730848e-04
 5.7318885e-04
 5.5345064e-04
 5.1248322e-04
 4.5467594e-04
 3.8441818e-04
 3.0609931e-04
 2.2410869e-04
 1.4283568e-04
 6.6669665e-05
 0.0000000e+00
-5.3709661e-05
-9.4698522e-05
-1.2413151e-04
-1.4317353e-04
-1.5298952e-04
-1.5474440e-04
-1.4960308e-04
-1.3873048e-04
-1.2329154e-04
-1.0445116e-04
-8.3374265e-05
-6.1225783e-05
-3.9170631e-05
-1.8373730e-05
 0.0000000e+00
 1.5024843e-05
 2.6731910e-05
 3.5391517e-05
 4.1273980e-05
 4.4649615e-05
 4.5788739e-05
 4.4961667e-05
 4.2438716e-05
 3.8490202e-05
 3.3386442e-05
 2.7397750e-05
 2.0794444e-05
 1.3846839e-05
 6.8252527e-06
 0.0000000e+00
-6.3897125e-06
-1.2229119e-05
-1.7434563e-05
-2.1922388e-05
-2.5608939e-05
-2.8410559e-05
-3.0243592e-05
-3.1024383e-05
-3.0669274e-05
-2.9094610e-05
-2.6216735e-05
-2.1951993e-05
-1.6216727e-05
-8.9272812e-06
 0.0000000e+00
 1.0534007e-05
 2.2184565e-05
 3.4346734e-05
 4.6415572e-05
 5.7786140e-05
 6.7853497e-05
 7.6012702e-05
 8.1658814e-05
 8.4186894e-05
 8.2991999e-05
 7.7469191e-05
 6.7013527e-05
 5.1020068e-05
 2.8883872e-05
 0.0000000e+00
-3.5746315e-05
-7.6509141e-05
-1.1995237e-04
-1.6373990e-04
-2.0553562e-04
-2.4300343e-04
-2.7380722e-04
-2.9561088e-04
-3.0607830e-04
-3.0287339e-04
-2.8366003e-04
-2.4610211e-04
-1.8786354e-04
-1.0660821e-04
 0.0000000e+00
 1.3245125e-04
 2.8385200e-04
 4.4546276e-04
 6.0854403e-04
 7.6435635e-04
 9.0416022e-04
 1.0192162e-03
 1.1007847e-03
 1.1401263e-03
 1.1285015e-03
 1.0571709e-03
 9.1739493e-04
 7.0043411e-04
 3.9754896e-04
 0.0000000e+00
-4.9763944e-04
-1.0875448e-03
-1.7585786e-03
-2.4996036e-03
-3.2994824e-03
-4.1470775e-03
-5.0312515e-03
-5.9408671e-03
-6.8647869e-03
-7.7918736e-03
-8.7109896e-03
-9.6109976e-03
-1.0480760e-02
-1.1309140e-02
-1.2085000e-02
-1.2805159e-02
-1.3498261e-02
-1.4200908e-02
-1.4949701e-02
-1.5781242e-02
-1.6732130e-02
-1.7838969e-02
-1.9138358e-02
-2.0666899e-02
-2.2461193e-02
-2.4557841e-02
-2.6993444e-02
-2.9804605e-02
-3.3027923e-02
-3.6700000e-02
-4.0846865e-02
-4.5452259e-02
-5.0489349e-02
-5.5931304e-02
-6.1751292e-02
-6.7922481e-02
-7.4418040e-02
-8.1211136e-02
-8.8274939e-02
-9.5582616e-02
-1.0310733e-01
-1.1082226e-01
-1.1870057e-01
-1.2671543e-01
-1.3484000e-01
-1.4301690e-01
-1.5106651e-01
-1.5877866e-01
-1.6594317e-01
-1.7234989e-01
-1.7778863e-01
-1.8204922e-01
-1.8492149e-01
-1.8619527e-01
-1.8566038e-01
-1.8310666e-01
-1.7832394e-01
-1.7110203e-01
-1.6123078e-01
-1.4850000e-01
-1.3273898e-01
-1.1393480e-01
-9.2113983e-02
-6.7303074e-02
-3.9528601e-02
-8.8170959e-03
 2.4804908e-02
 6.1310878e-02
 1.0067428e-01
 1.4286859e-01
 1.8786726e-01
 2.3564377e-01
 2.8617159e-01
 3.3942418e-01
 3.9537500e-01
 4.5388002e-01
 5.1432518e-01
 5.7597891e-01
 6.3810963e-01
 6.9998577e-01
 7.6087577e-01
 8.2004805e-01
 8.7677104e-01
 9.3031317e-01
 9.7994288e-01
 1.0249286e+00
 1.0645387e+00
 1.0980417e+00
 1.1247060e+00
 1.1438000e+00
 1.1547887e+00
 1.1579236e+00
 1.1536526e+00
 1.1424237e+00
 1.1246850e+00
 1.1008843e+00
 1.0714696e+00
 1.0368891e+00
 9.9759058e-01
 9.5402212e-01
 9.0663168e-01
 8.5586727e-01
 8.0217686e-01
 7.4600844e-01
 6.8781000e-01
 6.2802509e-01
 5.6707946e-01
 5.0539443e-01
 4.4339132e-01
 3.8149145e-01
 3.2011612e-01
 2.5968666e-01
 2.0062437e-01
 1.4335059e-01
 8.8286615e-02
 3.5853771e-02
-1.3526628e-02
-5.9433267e-02
-1.0144483e-01
-1.3914000e-01
-1.7220732e-01
-2.0077476e-01
-2.2508015e-01
-2.4536133e-01
-2.6185611e-01
-2.7480233e-01
-2.8443782e-01
-2.9100041e-01
-2.9472793e-01
-2.9585821e-01
-2.9462907e-01
-2.9127836e-01
-2.8604388e-01
-2.7916349e-01
-2.7087500e-01
-2.6140066e-01
-2.5090038e-01
-2.3951846e-01
-2.2739923e-01
-2.1468701e-01
-2.0152612e-01
-1.8806086e-01
-1.7443556e-01
-1.6079454e-01
-1.4728212e-01
-1.3404260e-01
-1.2122031e-01
-1.0895957e-01
-9.7404695e-02
-8.6700000e-02
-7.6956265e-02
-6.8150106e-02
-6.0224603e-02
-5.3122832e-02
-4.6787873e-02
-4.1162802e-02
-3.6190697e-02
-3.1814637e-02
-2.7977699e-02
-2.4622961e-02
-2.1693501e-02
-1.9132398e-02
-1.6882727e-02
-1.4887569e-02
-1.3090000e-02
-1.1441647e-02
-9.9283269e-03
-8.5444076e-03
-7.2842552e-03
-6.1422360e-03
-5.1127166e-03
-4.1900635e-03
-3.3686430e-03
-2.6428218e-03
-2.0069662e-03
-1.4554428e-03
-9.8261796e-04
-5.8285824e-04
-2.5053010e-04
 2.0000000e-05
 2.3421951e-04
 3.9703160e-04
 5.1319340e-04
 5.8746200e-04
 6.2459453e-04
 6.2934809e-04
 6.0647980e-04
 5.6074676e-04
 4.9690609e-04
 4.1971490e-04
 3.3393029e-04
 2.4430939e-04
 1.5560930e-04
 7.2587133e-05
 0.0000000e+00
-5.8401871e-05
-1.0289579e-04
-1.3476594e-04
-1.5529652e-04
-1.6577173e-04
-1.6747574e-04
-1.6169276e-04
-1.4970697e-04
-1.3280257e-04
-1.1226375e-04
-8.9374693e-05
-6.5419600e-05
-4.1682659e-05
-1.9448062e-05
-6.7446049e-18
 1.5648717e-05
 2.7570806e-05
 3.6110367e-05
 4.1611498e-05
 4.4418300e-05
 4.4874871e-05
 4.3325310e-05
 4.0113718e-05
 3.5584192e-05
 3.0080832e-05
 2.3947738e-05
 1.7529009e-05
 1.1168743e-05
 5.2110403e-06
 0.0000000e+00
-4.1929962e-06
-7.3874363e-06
-9.6755257e-06
-1.1149470e-05
-1.1901474e-05
-1.2023743e-05
-1.1608483e-05
-1.0747900e-05
-9.5341977e-06
-8.0595826e-06
-6.4162599e-06
-4.6964349e-06
-2.9923130e-06
-1.3960995e-06
 0.0000000e+00
 1.1232682e-06
 1.9789395e-06
 2.5917361e-06
 2.9863805e-06
 3.1875949e-06
 3.2201016e-06
 3.1086229e-06
 2.8778813e-06
 2.5525989e-06
 2.1574982e-06
 1.7173014e-06
 1.2567308e-06
 8.0050887e-07
 3.7335782e-07
 0.0000000e+00
-3.0007664e-07
-5.2832164e-07
-6.9141888e-07
-7.9605227e-07
-8.4890571e-07
-8.5666308e-07
-8.2600830e-07
-7.6362526e-07
-6.7619785e-07
-5.7040997e-07
-4.5294552e-07
-3.3048840e-07
-2.0972251e-07
-9.7331746e-08
 0.0000000e+00
 7.7038354e-08
 1.3434706e-07
 1.7393938e-07
 1.9782860e-07
 2.0802798e-07
 2.0655078e-07
 1.9541029e-07
 1.7661977e-07
 1.5219249e-07
 1.2414172e-07
 9.4480735e-08
 6.5222799e-08
 3.8381185e-08
 1.5969162e-08
 0.0000000e+00
-8.0767721e-09
-9.0665952e-09
-4.3386517e-09
 4.7378756e-09
 1.6793804e-08
 3.0459952e-08
 4.4367135e-08
 5.7146173e-08
 6.7427881e-08
 7.3843078e-08
 7.5022581e-08
 6.9597207e-08
 5.6197774e-08
 3.3455099e-08
 0.0000000e+00
-4.4731266e-08
-9.8080678e-08
-1.5658478e-07
-2.1678010e-07
-2.7520319e-07
-3.2839059e-07
-3.7287883e-07
-4.0520446e-07
-4.2190402e-07
-4.1951403e-07
-3.9457106e-07
-3.4361163e-07
-2.6317228e-07
-1.4978956e-07
 0.0000000e+00
 1.8700183e-07
 4.0138931e-07
 6.3067776e-07
 8.6238253e-07
 1.0840190e-06
 1.2831024e-06
 1.4471482e-06
 1.5636717e-06
 1.6201882e-06
 1.6042131e-06
 1.5032617e-06
 1.3048493e-06
 9.9649135e-07
 5.6570313e-07
 0.0000000e+00
-7.0327607e-07
-1.5074765e-06
-2.3661263e-06
-3.2327500e-06
-4.0608727e-06
-4.8040190e-06
-5.4157140e-06
-5.8494822e-06
-6.0588487e-06
-5.9973382e-06
-5.6184755e-06
-4.8757856e-06
-3.7227931e-06
-2.1130230e-06
 0.0000000e+00
 2.6261025e-06
 5.6285169e-06
 8.8338273e-06
 1.2068618e-05
 1.5159472e-05
 1.7932974e-05
 2.0215708e-05
 2.1834257e-05
 2.2615207e-05
 2.2385140e-05
 2.0970641e-05
 1.8198293e-05
 1.3894681e-05
 7.8863888e-06
 0.0000000e+00
-9.8011337e-06
-2.1006591e-05
-3.2969183e-05
-4.5041720e-05
-5.6577014e-05
-6.6927876e-05
-7.5447116e-05
-8.1487547e-05
-8.4401978e-05
-8.3543221e-05
-7.8264087e-05
-6.7917386e-05
-5.1855931e-05
-2.9432532e-05
 0.0000000e+00
 3.7763618e-05
 8.7879329e-05
 1.5504290e-04
 2.4395012e-04
 3.5929673e-04
 5.0577853e-04
 6.8809128e-04
 9.1093074e-04
 1.1789927e-03
 1.4969729e-03
 1.8695672e-03
 2.3014713e-03
 2.7973809e-03
 3.3619919e-03
 4.0000000e-03
 4.7147807e-03
 5.5044285e-03
 6.3657176e-03
 7.2954220e-03
 8.2903160e-03
 9.3471738e-03
 1.0462769e-02
 1.1633877e-02
 1.2857271e-02
 1.4129726e-02
 1.5448015e-02
 1.6808912e-02
 1.8209193e-02
 1.9645631e-02
 2.1115000e-02
 2.2614989e-02
 2.4146944e-02
 2.5713127e-02
 2.7315797e-02
 2.8957217e-02
 3.0639646e-02
 3.2365347e-02
 3.4136578e-02
 3.5955603e-02
 3.7824680e-02
 3.9746072e-02
 4.1722039e-02
 4.3754842e-02
 4.5846742e-02
 4.8000000e-02
 5.0216594e-02
 5.2497371e-02
 5.4842895e-02
 5.7253732e-02
 5.9730446e-02
 6.2273600e-02
 6.4883761e-02
 6.7561492e-02
 7.0307358e-02
 7.3121924e-02
 7.6005753e-02
 7.8959411e-02
 8.1983461e-02
 8.5078470e-02
 8.8245000e-02
 9.1483496e-02
 9.4793914e-02
 9.8176093e-02
 1.0162987e-01
 1.0515507e-01
 1.0875155e-01
 1.1241913e-01
 1.1615766e-01
 1.1996696e-01
 1.2384688e-01
 1.2779726e-01
 1.3181792e-01
 1.3590870e-01
 1.4006945e-01
 1.4430000e-01
 1.4859991e-01
 1.5296765e-01
 1.5740141e-01
 1.6189940e-01
 1.6645981e-01
 1.7108083e-01
 1.7576066e-01
 1.8049750e-01
 1.8528954e-01
 1.9013498e-01
 1.9503201e-01
 1.9997884e-01
 2.0497364e-01
 2.1001463e-01
 2.1510000e-01
 2.2022768e-01
 2.2539457e-01
 2.3059729e-01
 2.3583249e-01
 2.4109679e-01
 2.4638684e-01
 2.5169926e-01
 2.5703068e-01
 2.6237774e-01
 2.6773708e-01
 2.7310532e-01
 2.7847910e-01
 2.8385505e-01
 2.8922980e-01
 2.9460000e-01
 2.9996222e-01
 3.0531289e-01
 3.1064838e-01
 3.1596506e-01
 3.2125931e-01
 3.2652749e-01
 3.3176599e-01
 3.3697117e-01
 3.4213941e-01
 3.4726709e-01
 3.5235057e-01
 3.5738622e-01
 3.6237043e-01
 3.6729957e-01
 3.7217000e-01
 3.7697742e-01
 3.8171477e-01
 3.8637430e-01
 3.9094827e-01
 3.9542893e-01
 3.9980854e-01
 4.0407936e-01
 4.0823364e-01
 4.1226364e-01
 4.1616161e-01
 4.1991981e-01
 4.2353049e-01
 4.2698592e-01
 4.3027833e-01
 4.3340000e-01
 4.3634627e-01
 4.3912489e-01
 4.4174671e-01
 4.4422257e-01
 4.4656331e-01
 4.4877977e-01
 4.5088281e-01
 4.5288327e-01
 4.5479198e-01
 4.5661980e-01
 4.5837756e-01
 4.6007612e-01
 4.6172632e-01
 4.6333900e-01
 4.6492500e-01
 4.6649220e-01
 4.6803659e-01
 4.6955118e-01
 4.7102899e-01
 4.7246303e-01
 4.7384632e-01
 4.7517189e-01
 4.7643273e-01
 4.7762188e-01
 4.7873235e-01
 4.7975714e-01
 4.8068929e-01
 4.8152181e-01
 4.8224770e-01
 4.8286000e-01
 4.8335230e-01
 4.8372058e-01
 4.8396138e-01
 4.8407127e-01
 4.8404680e-01
 4.8388453e-01
 4.8358102e-01
 4.8313282e-01
 4.8253649e-01
 4.8178859e-01
 4.8088568e-01
 4.7982431e-01
 4.7860103e-01
 4.7721241e-01
 4.7565500e-01
 4.7392666e-01
 4.7203048e-01
 4.6997083e-01
 4.6775210e-01
 4.6537866e-01
 4.6285491e-01
 4.6018523e-01
 4.5737399e-01
 4.5442558e-01
 4.5134439e-01
 4.4813479e-01
 4.4480117e-01
 4.4134791e-01
 4.3777939e-01
 4.3410000e-01
 4.3031385e-01
 4.2642396e-01
 4.2243310e-01
 4.1834401e-01
 4.1415947e-01
 4.0988221e-01
 4.0551501e-01
 4.0106061e-01
 3.9652178e-01
 3.9190127e-01
 3.8720183e-01
 3.8242623e-01
 3.7757722e-01
 3.7265756e-01
 3.6767000e-01
 3.6261737e-01
 3.5750274e-01
 3.5232925e-01
 3.4710005e-01
 3.4181828e-01
 3.3648707e-01
 3.3110957e-01
 3.2568892e-01
 3.2022826e-01
 3.1473074e-01
 3.0919948e-01
 3.0363764e-01
 2.9804835e-01
 2.9243476e-01
 2.8680000e-01
 2.8114735e-01
 2.7548060e-01
 2.6980368e-01
 2.6412051e-01
 2.5843500e-01
 2.5275109e-01
 2.4707270e-01
 2.4140375e-01
 2.3574816e-01
 2.3010986e-01
 2.2449278e-01
 2.1890082e-01
 2.1333793e-01
 2.0780801e-01
 2.0231500e-01
 1.9686257e-01
 1.9145345e-01
 1.8609010e-01
 1.8077499e-01
 1.7551060e-01
 1.7029939e-01
 1.6514385e-01
 1.6004644e-01
 1.5500964e-01
 1.5003592e-01
 1.4512774e-01
 1.4028759e-01
 1.3551794e-01
 1.3082125e-01
 1.2620000e-01
 1.2165575e-01
 1.1718640e-01
 1.1278893e-01
 1.0846034e-01
 1.0419761e-01
 9.9997736e-02
 9.5857695e-02
 9.1774478e-02
 8.7745073e-02
 8.3766468e-02
 7.9835650e-02
 7.5949606e-02
 7.2105325e-02
 6.8299794e-02
 6.4530000e-02
 6.0794998e-02
 5.7102112e-02
 5.3460732e-02
 4.9880250e-02
 4.6370057e-02
 4.2939543e-02
 3.9598100e-02
 3.6355117e-02
 3.3219988e-02
 3.0202101e-02
 2.7310849e-02
 2.4555622e-02
 2.1945810e-02
 1.9490806e-02
 1.7200000e-02
 1.5080137e-02
 1.3127384e-02
 1.1335258e-02
 9.6972814e-03
 8.2069727e-03
 6.8578520e-03
 5.6434392e-03
 4.5572541e-03
 3.5928165e-03
 2.7436463e-03
 2.0032633e-03
 1.3651874e-03
 8.2293827e-04
 3.7003587e-04
 0.0000000e+00
-2.9364563e-04
-5.1736184e-04
-6.7760555e-04
-7.8083370e-04
-8.3350323e-04
-8.4207107e-04
-8.1299416e-04
-7.5272943e-04
-6.6773382e-04
-5.6446426e-04
-4.4937769e-04
-3.2893105e-04
-2.0958126e-04
-9.7785264e-05
 0.0000000e+00
 7.8682110e-05
 1.3862669e-04
 1.8156386e-04
 2.0922376e-04
 2.2333652e-04
 2.2563226e-04
 2.1784113e-04
 2.0169324e-04
 1.7891874e-04
 1.5124774e-04
 1.2041039e-04
 8.8136808e-05
 5.6157129e-05
 2.6201483e-05
 0.0000000e+00
-2.1082808e-05
-3.7144909e-05
-4.8649890e-05
-5.6061338e-05
-5.9842840e-05
-6.0457983e-05
-5.8370355e-05
-5.4043542e-05
-4.7941131e-05
-4.0526711e-05
-3.2263867e-05
-2.3616187e-05
-1.5047257e-05
-7.0206661e-06
 0.0000000e+00
 5.6491214e-06
 9.9529483e-06
 1.3035699e-05
 1.5021590e-05
 1.6034841e-05
 1.6199668e-05
 1.5640289e-05
 1.4480923e-05
 1.2845787e-05
 1.0859099e-05
 8.6450770e-06
 6.3279381e-06
 4.0319004e-06
 1.8811818e-06
 0.0000000e+00
-1.5136775e-06
-2.6668845e-06
-3.4929049e-06
-4.0250229e-06
-4.2965226e-06
-4.3406879e-06
-4.1908029e-06
-3.8801517e-06
-3.4420184e-06
-2.9096869e-06
-2.3164414e-06
-1.6955659e-06
-1.0803445e-06
-5.0406115e-07
 0.0000000e+00
 4.0558867e-07
 7.1458955e-07
 9.3592107e-07
 1.0785017e-06
 1.1512498e-06
 1.1630838e-06
 1.1229223e-06
 1.0396835e-06
 9.2228607e-07
 7.7964829e-07
 6.2068863e-07
 4.5432554e-07
 2.8947745e-07
 1.3506279e-07
 0.0000000e+00
-1.0867717e-07
-1.9147372e-07
-2.5077934e-07
-2.8898371e-07
-3.0847652e-07
-3.1164746e-07
-3.0088621e-07
-2.7858247e-07
-2.4712592e-07
-2.0890623e-07
-1.6631312e-07
-1.2173625e-07
-7.7565314e-08
-3.6190002e-08
-2.4150603e-20
 2.9120006e-08
 5.1305327e-08
 6.7196276e-08
 7.7433163e-08
 8.2656301e-08
 8.3506001e-08
 8.0622574e-08
 7.4646333e-08
 6.6217588e-08
 5.5976651e-08
 4.4563835e-08
 3.2619450e-08
 2.0783808e-08
 9.6972208e-09
 0.0000000e+00
-7.8028547e-09
-1.3747591e-08
-1.8005769e-08
-2.0748947e-08
-2.2148686e-08
-2.2376544e-08
-2.1604083e-08
-2.0002860e-08
-1.7744436e-08
-1.5000370e-08
-1.1942222e-08
-8.7415515e-09
-5.5699180e-09
-2.5988809e-09
 0.0000000e+00
 2.0914129e-09
 3.6850369e-09
 4.8267985e-09
 5.5626246e-09
 5.9384417e-09
 6.0001767e-09
 5.7937563e-09
 5.3651070e-09
 4.7601557e-09
 4.0248290e-09
 3.2050537e-09
 2.3467565e-09
 1.4958639e-09
 6.9830289e-10
 0.0000000e+00
-5.6279701e-10
-9.9255640e-10
-1.3014254e-09
-1.5015513e-09
-1.6050812e-09
-1.6241625e-09
-1.5709424e-09
-1.4575682e-09
-1.2961870e-09
-1.0989461e-09
-8.7799279e-10
-6.4547428e-10
-4.1353781e-10
-1.9433064e-10
 0.0000000e+00
 1.5977512e-10
 2.8518872e-10
 3.7890309e-10
 4.4358049e-10
 4.8188317e-10
 4.9647342e-10
 4.9001350e-10
 4.6516567e-10
 4.2459220e-10
 3.7095537e-10
 3.0691743e-10
 2.3514066e-10
 1.5828731e-10
 7.9019674e-11
 0.0000000e+00
-7.6303455e-11
-1.4819850e-10
-2.1418697e-10
-2.7277068e-10
-3.2245146e-10
-3.6173114e-10
-3.8911154e-10
-4.0309450e-10
-4.0218183e-10
-3.8487536e-10
-3.4967693e-10
-2.9508834e-10
-2.1961145e-10
-1.2174806e-10
 0.0000000e+00
 1.4543870e-10
 3.0760529e-10
 4.7784478e-10
 6.4750223e-10
 8.0792267e-10
 9.5045114e-10
 1.0664327e-09
 1.1472123e-09
 1.1841351e-09
 1.1685461e-09
 1.0917903e-09
 9.4521272e-10
 7.2015847e-10
 4.0797255e-10
 0.0000000e+00
-5.0545136e-10
-1.0822226e-09
-1.6971922e-09
-2.3172382e-09
-2.9092392e-09
-3.4400734e-09
-3.8766192e-09
-4.1857548e-09
-4.3343586e-09
-4.2893090e-09
-4.0174842e-09
-3.4857625e-09
-2.6610224e-09
-1.5101421e-09
 0.0000000e+00
 1.8763667e-09
 4.0212853e-09
 6.3109239e-09
 8.6214508e-09
 1.0829034e-08
 1.2809843e-08
 1.4440044e-08
 1.5595807e-08
 1.6153299e-08
 1.5988690e-08
 1.4978146e-08
 1.2997837e-08
 9.9239312e-09
 5.6325960e-09
 0.0000000e+00
-7.0000156e-09
-1.5002918e-08
-2.3546503e-08
-3.2168565e-08
-4.0406898e-08
-4.7799297e-08
-5.3883557e-08
-5.8197473e-08
-6.0278839e-08
-5.9665450e-08
-5.5895101e-08
-4.8505587e-08
-3.7034702e-08
-2.1020242e-08
 0.0000000e+00
 2.6123696e-08
 5.5990389e-08
 8.7875089e-08
 1.2005281e-07
 1.5079856e-07
 1.7838734e-07
 2.0109418e-07
 2.1719408e-07
 2.2496206e-07
 2.2267311e-07
 2.0860226e-07
 1.8102451e-07
 1.3821488e-07
 7.8448371e-08
 0.0000000e+00
-9.7494767e-08
-2.0895864e-07
-3.2795385e-07
-4.4804267e-07
-5.6278733e-07
-6.6575008e-07
-7.5049318e-07
-8.1057886e-07
-8.3956939e-07
-8.3102699e-07
-7.7851393e-07
-6.7559246e-07
-5.1582481e-07
-2.9277324e-07
 0.0000000e+00
 3.6385537e-07
 7.7984415e-07
 1.2239403e-06
 1.6721179e-06
 2.1003508e-06
 2.4846130e-06
 2.8008785e-06
 3.0251214e-06
 3.1333155e-06
 3.1014349e-06
 2.9054535e-06
 2.5213453e-06
 1.9250844e-06
 1.0926446e-06
 0.0000000e+00
-1.3579267e-06
-2.9104180e-06
-4.5678074e-06
-6.2404288e-06
-7.8386157e-06
-9.2727019e-06
-1.0453021e-05
-1.1289907e-05
-1.1693693e-05
-1.1574712e-05
-1.0843300e-05
-9.4097888e-06
-7.1845127e-06
-4.0778052e-06
 3.3996826e-18
 5.0678515e-06
 1.0861828e-05
 1.7047289e-05
 2.3289597e-05
 2.9254112e-05
 3.4606194e-05
 3.9011205e-05
 4.2134505e-05
 4.3641455e-05
 4.3197415e-05
 4.0467746e-05
 3.5117810e-05
 2.6812966e-05
 1.5218576e-05
-1.2687788e-17
-1.8913479e-05
-4.0536893e-05
-6.3621350e-05
-8.6917960e-05
-1.0917783e-04
-1.2915208e-04
-1.4559180e-04
-1.5724811e-04
-1.6287213e-04
-1.6121495e-04
-1.5102769e-04
-1.3106145e-04
-1.0006735e-04
-5.6796499e-05
 4.7351470e-17
 7.0586066e-05
 1.5128574e-04
 2.3743811e-04
 3.2438224e-04
 4.0745722e-04
 4.8200211e-04
 5.4335599e-04
 5.8685795e-04
 6.0784705e-04
 6.0166237e-04
 5.6364300e-04
 4.8912799e-04
 3.7345644e-04
 2.1196742e-04
-1.7671809e-16
-2.6343079e-04
-5.6460609e-04
-8.8613110e-04
-1.2106110e-03
-1.5206510e-03
-1.7988564e-03
-2.0278322e-03
-2.1901837e-03
-2.2685161e-03
-2.2454346e-03
-2.1035443e-03
-1.8254505e-03
-1.3937584e-03
-7.9107318e-04
 6.5952090e-16
 9.9337707e-04
 2.1890586e-03
 3.5835663e-03
 5.1734218e-03
 6.9551469e-03
 8.9252633e-03
 1.1080293e-02
 1.3416757e-02
 1.5931177e-02
 1.8620076e-02
 2.1479974e-02
 2.4507394e-02
 2.7698857e-02
 3.1050885e-02
 3.4560000e-02
 3.8222385e-02
 4.2032869e-02
 4.5985946e-02
 5.0076106e-02
 5.4297841e-02
 5.8645643e-02
 6.3114004e-02
 6.7697414e-02
 7.2390367e-02
 7.7187353e-02
 8.2082865e-02
 8.7071394e-02
 9.2147432e-02
 9.7305470e-02
 1.0254000e-01
 1.0784492e-01
 1.1321175e-01
 1.1863141e-01
 1.2409483e-01
 1.2959293e-01
 1.3511664e-01
 1.4065689e-01
 1.4620459e-01
 1.5175067e-01
 1.5728607e-01
 1.6280169e-01
 1.6828847e-01
 1.7373733e-01
 1.7913920e-01
 1.8448500e-01
 1.8976531e-01
 1.9496931e-01
 2.0008585e-01
 2.0510377e-01
 2.1001191e-01
 2.1479910e-01
 2.1945419e-01
 2.2396601e-01
 2.2832341e-01
 2.3251523e-01
 2.3653031e-01
 2.4035749e-01
 2.4398560e-01
 2.4740349e-01
 2.5060000e-01
 2.5356519e-01
 2.5629399e-01
 2.5878257e-01
 2.6102709e-01
 2.6302370e-01
 2.6476856e-01
 2.6625784e-01
 2.6748769e-01
 2.6845427e-01
 2.6915374e-01
 2.6958225e-01
 2.6973598e-01
 2.6961107e-01
 2.6920369e-01
 2.6851000e-01
 2.6752818e-01
 2.6626453e-01
 2.6472738e-01
 2.6292506e-01
 2.6086590e-01
 2.5855822e-01
 2.5601035e-01
 2.5323062e-01
 2.5022736e-01
 2.4700890e-01
 2.4358356e-01
 2.3995967e-01
 2.3614556e-01
 2.3214956e-01
 2.2798000e-01
 2.2364583e-01
 2.1915854e-01
 2.1453023e-01
 2.0977302e-01
 2.0489902e-01
 1.9992034e-01
 1.9484909e-01
 1.8969738e-01
 1.8447733e-01
 1.7920104e-01
 1.7388064e-01
 1.6852822e-01
 1.6315590e-01
 1.5777579e-01
 1.5240000e-01
 1.4703955e-01
 1.4170103e-01
 1.3638995e-01
 1.3111181e-01
 1.2587211e-01
 1.2067636e-01
 1.1553006e-01
 1.1043870e-01
 1.0540780e-01
 1.0044285e-01
 9.5549361e-02
 9.0732827e-02
 8.5998754e-02
 8.1352645e-02
 7.6800000e-02
 7.2346050e-02
 6.7994929e-02
 6.3750499e-02
 5.9616623e-02
 5.5597161e-02
 5.1695977e-02
 4.7916932e-02
 4.4263887e-02
 4.0740706e-02
 3.7351249e-02
 3.4099378e-02
 3.0988956e-02
 2.8023844e-02
 2.5207905e-02
 2.2545000e-02
 2.0037927e-02
 1.7685226e-02
 1.5484376e-02
 1.3432852e-02
 1.1528131e-02
 9.7676900e-03
 8.1490062e-03
 6.6695561e-03
 5.3268164e-03
 4.1182641e-03
 3.0413759e-03
 2.0936285e-03
 1.2724989e-03
 5.7546380e-04
-3.8156086e-16
-4.5767223e-04
-8.0635879e-04
-1.0561221e-03
-1.2170247e-03
-1.2991289e-03
-1.3124972e-03
-1.2671921e-03
-1.1732760e-03
-1.0408113e-03
-8.7986043e-04
-7.0048593e-04
-5.1275019e-04
-3.2671566e-04
-1.5244478e-04
 1.0227196e-16
 1.2268215e-04
 2.1616873e-04
 2.8315272e-04
 3.2632709e-04
 3.4838481e-04
 3.5201885e-04
 3.3992218e-04
 3.1478777e-04
 2.7930861e-04
 2.3617765e-04
 1.8808787e-04
 1.3773225e-04
 8.7803744e-05
 4.0995338e-05
-2.7526979e-17
-3.3056368e-05
-5.8316141e-05
-7.6488763e-05
-8.8283677e-05
-9.4410327e-05
-9.5578158e-05
-9.2496613e-05
-8.5875136e-05
-7.6423171e-05
-6.4850163e-05
-5.1865554e-05
-3.8178790e-05
-2.4499313e-05
-1.1536569e-05
 7.8359538e-18
 9.5433238e-06
 1.7095832e-05
 2.2802328e-05
 2.6807616e-05
 2.9256501e-05
 3.0293785e-05
 3.0064274e-05
 2.8712770e-05
 2.6384078e-05
 2.3223002e-05
 1.9374346e-05
 1.4982914e-05
 1.0193510e-05
 5.1509371e-06
-3.8168367e-18
-5.1169268e-06
-1.0067186e-05
-1.4720549e-05
-1.8946788e-05
-2.2615676e-05
-2.5596983e-05
-2.7760481e-05
-2.8975944e-05
-2.9113142e-05
-2.8041847e-05
-2.5631832e-05
-2.1752867e-05
-1.6274726e-05
-9.0671795e-06
 7.4313929e-18
 1.0924383e-05
 2.3172912e-05
 3.6079869e-05
 4.8979537e-05
 6.1206202e-05
 7.2094146e-05
 8.0977652e-05
 8.7191006e-05
 9.0068489e-05
 8.8944386e-05
 8.3152980e-05
 7.2028554e-05
 5.4905394e-05
 3.1117781e-05
-2.5908735e-17
-3.8580607e-05
-8.2624461e-05
-1.2959892e-04
-1.7697136e-04
-2.2220913e-04
-2.6277960e-04
-2.9615013e-04
-3.1978808e-04
-3.3116081e-04
-3.2773570e-04
-3.0698009e-04
-2.6636135e-04
-2.0334685e-04
-1.1540394e-04
 9.6203547e-17
 1.4333286e-04
 3.0680345e-04
 4.8055583e-04
 6.5473406e-04
 8.1948218e-04
 9.6494426e-04
 1.0812643e-03
 1.1585865e-03
 1.1870548e-03
 1.1568132e-03
 1.0580059e-03
 8.8077685e-04
 6.1527015e-04
 2.5162985e-04
-2.2000000e-04
-8.0596713e-04
-1.4985864e-03
-2.2866644e-03
-3.1590078e-03
-4.1044233e-03
-5.1117174e-03
-6.1696969e-03
-7.2671683e-03
-8.3929382e-03
-9.5358134e-03
-1.0684600e-02
-1.1828106e-02
-1.2955137e-02
-1.4054499e-02
-1.5115000e-02
-1.6134765e-02
-1.7149197e-02
-1.8203018e-02
-1.9340950e-02
-2.0607715e-02
-2.2048035e-02
-2.3706631e-02
-2.5628226e-02
-2.7857542e-02
-3.0439300e-02
-3.3418223e-02
-3.6839033e-02
-4.0746451e-02
-4.5185199e-02
-5.0200000e-02
-5.5816578e-02
-6.1984672e-02
-6.8635023e-02
-7.5698371e-02
-8.3105458e-02
-9.0787024e-02
-9.8673812e-02
-1.0669656e-01
-1.1478601e-01
-1.2287291e-01
-1.3088799e-01
-1.3876200e-01
-1.4642568e-01
-1.5380977e-01
-1.6084500e-01
-1.6743574e-01
-1.7338079e-01
-1.7845257e-01
-1.8242350e-01
-1.8506601e-01
-1.8615251e-01
-1.8545542e-01
-1.8274716e-01
-1.7780016e-01
-1.7038683e-01
-1.6027960e-01
-1.4725087e-01
-1.3107309e-01
-1.1151866e-01
-8.8360000e-02
-6.1444382e-02
-3.0918440e-02
 2.9963468e-03
 4.0078499e-02
 8.0106535e-02
 1.2285898e-01
 1.6811434e-01
 2.1565116e-01
 2.6524793e-01
 3.1668320e-01
 3.6973547e-01
 4.2418326e-01
 4.7980510e-01
 5.3637951e-01
 5.9368500e-01
 6.5143308e-01
 7.0906717e-01
 7.6596366e-01
 8.2149897e-01
 8.7504950e-01
 9.2599164e-01
 9.7370180e-01
 1.0175564e+00
 1.0569318e+00
 1.0912044e+00
 1.1197507e+00
 1.1419470e+00
 1.1571697e+00
 1.1647952e+00
 1.1642000e+00
 1.1549750e+00
 1.1375699e+00
 1.1126486e+00
 1.0808755e+00
 1.0429145e+00
 9.9942998e-01
 9.5108594e-01
 8.9854657e-01
 8.4247601e-01
 7.8353841e-01
 7.2239793e-01
 6.5971869e-01
 5.9616486e-01
 5.3240058e-01
 4.6909000e-01
 4.0682159e-01
 3.4588118e-01
 2.8647891e-01
 2.2882492e-01
 1.7312936e-01
 1.1960238e-01
 6.8454135e-02
 1.9894761e-02
-2.5865591e-02
-6.8616774e-02
-1.0814864e-01
-1.4425104e-01
-1.7671384e-01
-2.0532687e-01
-2.2988000e-01
-2.5024172e-01
-2.6659511e-01
-2.7920190e-01
-2.8832380e-01
-2.9422254e-01
-2.9715984e-01
-2.9739742e-01
-2.9519701e-01
-2.9082033e-01
-2.8452910e-01
-2.7658504e-01
-2.6724988e-01
-2.5678534e-01
-2.4545314e-01
-2.3351500e-01
-2.2120284e-01
-2.0862935e-01
-1.9587739e-01
-1.8302984e-01
-1.7016957e-01
-1.5737947e-01
-1.4474240e-01
-1.3234124e-01
-1.2025886e-01
-1.0857814e-01
-9.7381948e-02
-8.6753165e-02
-7.6774663e-02
-6.7529316e-02
-5.9100000e-02
-5.1546301e-02
-4.4834660e-02
-3.8908228e-02
-3.3710160e-02
-2.9183606e-02
-2.5271720e-02
-2.1917655e-02
-1.9064564e-02
-1.6655598e-02
-1.4633911e-02
-1.2942655e-02
-1.1524984e-02
-1.0324049e-02
-9.2830034e-03
-8.3450000e-03
-7.4626776e-03
-6.6266203e-03
-5.8368983e-03
-5.0935822e-03
-4.3967421e-03
-3.7464484e-03
-3.1427715e-03
-2.5857817e-03
-2.0755494e-03
-1.6121447e-03
-1.1956382e-03
-8.2610018e-04
-5.0360090e-04
-2.2821073e-04
 1.5143261e-16
 1.8163833e-04
 3.2002091e-04
 4.1914174e-04
 4.8299485e-04
 5.1557427e-04
 5.2087401e-04
 5.0288810e-04
 4.6561057e-04
 4.1303542e-04
 3.4915669e-04
 2.7796839e-04
 2.0346455e-04
 1.2963919e-04
 6.0486333e-05
-4.0576232e-17
-4.8669823e-05
-8.5749297e-05
-1.1230862e-04
-1.2941798e-04
-1.3814758e-04
-1.3956762e-04
-1.3474830e-04
-1.2475980e-04
-1.1067232e-04
-9.3556068e-05
-7.4481233e-05
-5.4518012e-05
-3.4736602e-05
-1.6207199e-05
 1.0872314e-17
 1.3040959e-05
 2.2976282e-05
 3.0092732e-05
 3.4677073e-05
 3.7016069e-05
 3.7396482e-05
 3.6105077e-05
 3.3428617e-05
 2.9653865e-05
 2.5067586e-05
 1.9956543e-05
 1.4607499e-05
 9.3072182e-06
 4.3424640e-06
-2.9130261e-18
-3.4940138e-06
-6.1558318e-06
-8.0623118e-06
-9.2903119e-06
-9.9166899e-06
-1.0018304e-05
-9.6720114e-06
-8.9546707e-06
-7.9431397e-06
-6.7142763e-06
-5.3449383e-06
-3.9119838e-06
-2.4922706e-06
-1.1626567e-06
 7.7979016e-19
 9.3509593e-07
 1.6470449e-06
 2.1565149e-06
 2.4841742e-06
 2.6506909e-06
 2.6767330e-06
 2.5829688e-06
 2.3900663e-06
 2.1186937e-06
 1.7895191e-06
 1.4232106e-06
 1.0404363e-06
 6.6186432e-07
 3.0816286e-07
-2.0613450e-19
-2.4636991e-07
-4.3234767e-07
-5.6374784e-07
-6.4638498e-07
-6.8607366e-07
-6.8862845e-07
-6.5986392e-07
-6.0559463e-07
-5.3163515e-07
-4.4380004e-07
-3.4790388e-07
-2.4976123e-07
-1.5518665e-07
-6.9994721e-08
 4.4747855e-20
 5.0383729e-08
 8.2345824e-08
 9.8476431e-08
 1.0136569e-07
 9.3603753e-08
 7.7780756e-08
 5.6486847e-08
 3.2312169e-08
 7.8468660e-09
-1.4318917e-08
-3.1595037e-08
-4.1391349e-08
-4.1117710e-08
-2.8183975e-08
 2.7143085e-20
 4.4835000e-08
 1.0296437e-07
 1.6984211e-07
 2.4092221e-07
 3.1165865e-07
 3.7750543e-07
 4.3391653e-07
 4.7634595e-07
 5.0024768e-07
 5.0107571e-07
 4.7428403e-07
 4.1532662e-07
 3.1965749e-07
 1.8273062e-07
-1.5332019e-19
-2.2972373e-07
-4.9420332e-07
-7.7784488e-07
-1.0650545e-06
-1.3402383e-06
-1.5878025e-06
-1.7921530e-06
-1.9376960e-06
-2.0088376e-06
-1.9899839e-06
-1.8655411e-06
-1.6199151e-06
-1.2375123e-06
-7.0273851e-07
 5.8613769e-19
 8.7405991e-07
 1.8738489e-06
 2.9415374e-06
 4.0192959e-06
 5.0492947e-06
 5.9737044e-06
 6.7346953e-06
 7.2744379e-06
 7.5351027e-06
 7.4588600e-06
 6.9878803e-06
 6.0643340e-06
 4.6303915e-06
 2.6282234e-06
-2.1912306e-18
-3.2665159e-06
-7.0011923e-06
-1.0988305e-05
-1.5012129e-05
-1.8856941e-05
-2.2307015e-05
-2.5146628e-05
-2.7160056e-05
-2.8131573e-05
-2.7845456e-05
-2.6085980e-05
-2.2637421e-05
-1.7284054e-05
-9.8101551e-06
 8.1787846e-18
 1.2192004e-05
 2.6130920e-05
 4.1011682e-05
 5.6029220e-05
 7.0378468e-05
 8.3254356e-05
 9.3851818e-05
 1.0136579e-04
 1.0499119e-04
 1.0392296e-04
 9.7356040e-05
 8.4485349e-05
 6.4505824e-05
 3.6612397e-05
-6.1047816e-17
-4.5501499e-05
-9.7522489e-05
-1.5305842e-04
-2.0910475e-04
-2.6265693e-04
-3.1071041e-04
-3.5026064e-04
-3.7830309e-04
-3.9183319e-04
-3.8784640e-04
-3.6333818e-04
-3.1530398e-04
-2.4073924e-04
-1.3663943e-04
 0.0000000e+00
 1.7194733e-04
 3.8102570e-04
 6.2882201e-04
 9.1692312e-04
 1.2469159e-03
 1.6203873e-03
 2.0389241e-03
 2.5041132e-03
 3.0175416e-03
 3.5807960e-03
 4.1954633e-03
 4.8631306e-03
 5.5853845e-03
 6.3638120e-03
 7.2000000e-03
 8.0950500e-03
 9.0481219e-03
 1.0057890e-02
 1.1123030e-02
 1.2242215e-02
 1.3414121e-02
 1.4637422e-02
 1.5910792e-02
 1.7232907e-02
 1.8602440e-02
 2.0018067e-02
 2.1478462e-02
 2.2982299e-02
 2.4528254e-02
 2.6115000e-02
 2.7741731e-02
 2.9409715e-02
 3.1120736e-02
 3.2876582e-02
 3.4679037e-02
 3.6529888e-02
 3.8430920e-02
 4.0383919e-02
 4.2390671e-02
 4.4452961e-02
 4.6572577e-02
 4.8751302e-02
 5.0990924e-02
 5.3293228e-02
 5.5660000e-02
 5.8092794e-02
 6.0592237e-02
 6.3158724e-02
 6.5792651e-02
 6.8494414e-02
 7.1264408e-02
 7.4103029e-02
 7.7010671e-02
 7.9987731e-02
 8.3034603e-02
 8.6151684e-02
 8.9339369e-02
 9.2598053e-02
 9.5928131e-02
 9.9330000e-02
 1.0280392e-01
 1.0634964e-01
 1.0996677e-01
 1.1365491e-01
 1.1741368e-01
 1.2124268e-01
 1.2514153e-01
 1.2910983e-01
 1.3314721e-01
 1.3725326e-01
 1.4142759e-01
 1.4566982e-01
 1.4997956e-01
 1.5435642e-01
 1.5880000e-01
 1.6330963e-01
 1.6788350e-01
 1.7251948e-01
 1.7721549e-01
 1.8196940e-01
 1.8677912e-01
 1.9164253e-01
 1.9655752e-01
 2.0152200e-01
 2.0653386e-01
 2.1159098e-01
 2.1669126e-01
 2.2183260e-01
 2.2701288e-01
 2.3223000e-01
 2.3748156e-01
 2.4276398e-01
 2.4807337e-01
 2.5340588e-01
 2.5875761e-01
 2.6412470e-01
 2.6950327e-01
 2.7488944e-01
 2.8027934e-01
 2.8566909e-01
 2.9105482e-01
 2.9643265e-01
 3.0179871e-01
 3.0714912e-01
 3.1248000e-01
 3.1778757e-01
 3.2306837e-01
 3.2831906e-01
 3.3353627e-01
 3.3871663e-01
 3.4385680e-01
 3.4895341e-01
 3.5400310e-01
 3.5900251e-01
 3.6394829e-01
 3.6883707e-01
 3.7366548e-01
 3.7843019e-01
 3.8312781e-01
 3.8775500e-01
 3.9230747e-01
 3.9677722e-01
 4.0115534e-01
 4.0543292e-01
 4.0960103e-01
 4.1365077e-01
 4.1757320e-01
 4.2135943e-01
 4.2500052e-01
 4.2848757e-01
 4.3181165e-01
 4.3496385e-01
 4.3793525e-01
 4.4071694e-01
 4.4330000e-01
 4.4567997e-01
 4.4787023e-01
 4.4988861e-01
 4.5175295e-01
 4.5348108e-01
 4.5509085e-01
 4.5660008e-01
 4.5802661e-01
 4.5938828e-01
 4.6070293e-01
 4.6198838e-01
 4.6326248e-01
 4.6454306e-01
 4.6584795e-01
 4.6719500e-01
 4.6859615e-01
 4.7003985e-01
 4.7150863e-01
 4.7298506e-01
 4.7445168e-01
 4.7589105e-01
 4.7728572e-01
 4.7861823e-01
 4.7987115e-01
 4.8102702e-01
 4.8206840e-01
 4.8297784e-01
 4.8373788e-01
 4.8433108e-01
 4.8474000e-01
 4.8495078e-01
 4.8496400e-01
 4.8478383e-01
 4.8441443e-01
 4.8385997e-01
 4.8312463e-01
 4.8221258e-01
 4.8112799e-01
 4.7987503e-01
 4.7845787e-01
 4.7688067e-01
 4.7514762e-01
 4.7326287e-01
 4.7123061e-01
 4.6905500e-01
 4.6673993e-01
 4.6428815e-01
 4.6170214e-01
 4.5898438e-01
 4.5613732e-01
 4.5316345e-01
 4.5006524e-01
 4.4684516e-01
 4.4350569e-01
 4.4004929e-01
 4.3647844e-01
 4.3279562e-01
 4.2900329e-01
 4.2510392e-01
 4.2110000e-01
 4.1699411e-01
 4.1278934e-01
 4.0848888e-01
 4.0409593e-01
 3.9961371e-01
 3.9504540e-01
 3.9039420e-01
 3.8566333e-01
 3.8085597e-01
 3.7597534e-01
 3.7102463e-01
 3.6600703e-01
 3.6092577e-01
 3.5578402e-01
 3.5058500e-01
 3.4533191e-01
 3.4002797e-01
 3.3467643e-01
 3.2928049e-01
 3.2384341e-01
 3.1836841e-01
 3.1285871e-01
 3.0731756e-01
 3.0174818e-01
 2.9615380e-01
 2.9053765e-01
 2.8490296e-01
 2.7925297e-01
 2.7359091e-01
 2.6792000e-01
 2.6224357e-01
 2.5656530e-01
 2.5088898e-01
 2.4521838e-01
 2.3955728e-01
 2.3390946e-01
 2.2827869e-01
 2.2266876e-01
 2.1708344e-01
 2.1152652e-01
 2.0600176e-01
 2.0051295e-01
 1.9506387e-01
 1.8965829e-01
 1.8430000e-01
 1.7899248e-01
 1.7373808e-01
 1.6853885e-01
 1.6339685e-01
 1.5831414e-01
 1.5329277e-01
 1.4833479e-01
 1.4344227e-01
 1.3861726e-01
 1.3386181e-01
 1.2917798e-01
 1.2456783e-01
 1.2003341e-01
 1.1557678e-01
 1.1120000e-01
 1.0690402e-01
 1.0268542e-01
 9.8539693e-02
 9.4462310e-02
 9.0448757e-02
 8.6494516e-02
 8.2595070e-02
 7.8745901e-02
 7.4942492e-02
 7.1180325e-02
 6.7454882e-02
 6.3761645e-02
 6.0096098e-02
 5.6453722e-02
 5.2830000e-02
 4.9223632e-02
 4.5646187e-02
 4.2112455e-02
 3.8637222e-02
 3.5235278e-02
 3.1921409e-02
 2.8710403e-02
 2.5617050e-02
 2.2656135e-02
 1.9842448e-02
 1.7190776e-02
 1.4715908e-02
 1.2432630e-02
 1.0355732e-02
 8.5000000e-03
 6.8751092e-03
 5.4702769e-03
 4.2696070e-03
 3.2572032e-03
 2.4171692e-03
 1.7336089e-03
 1.1906260e-03
 7.7232420e-04
 4.6280734e-04
 2.4617915e-04
 1.0654339e-04
 2.8003842e-05
-5.3357498e-06
-9.3716176e-06
 7.9762969e-18
 9.5673005e-06
 1.6856223e-05
 2.2077140e-05
 2.5440428e-05
 2.7156460e-05
 2.7435610e-05
 2.6488252e-05
 2.4524760e-05
 2.1755509e-05
 1.8390872e-05
 1.4641224e-05
 1.0716938e-05
 6.8283899e-06
 3.1859524e-06
-2.1372423e-18
-2.5635504e-06
-4.5166112e-06
-5.9155520e-06
-6.8167422e-06
-7.2765515e-06
-7.3513494e-06
-7.0975056e-06
-6.5713896e-06
-5.8293710e-06
-4.9278192e-06
-3.9231041e-06
-2.8715950e-06
-1.8296615e-06
-8.5367337e-07
 5.7267235e-19
 6.8690127e-07
 1.2102223e-06
 1.5850674e-06
 1.8265406e-06
 1.9497461e-06
 1.9697881e-06
 1.9017709e-06
 1.7607985e-06
 1.5619752e-06
 1.3204052e-06
 1.0511926e-06
 7.6944155e-07
 4.9025633e-07
 2.2874109e-07
-1.5344709e-19
-1.8405464e-07
-3.2427810e-07
-4.2471752e-07
-4.8942007e-07
-5.2243289e-07
-5.2780314e-07
-5.0957797e-07
-4.7180454e-07
-4.1853000e-07
-3.5380150e-07
-2.8166620e-07
-2.0617124e-07
-1.3136379e-07
-6.1290989e-08
 4.1116024e-20
 4.9317291e-08
 8.6890051e-08
 1.1380271e-07
 1.3113971e-07
 1.3998546e-07
 1.4142442e-07
 1.3654100e-07
 1.2641963e-07
 1.1214476e-07
 9.4800815e-08
 7.5472219e-08
 5.5243408e-08
 3.5198813e-08
 1.6422867e-08
-2.2034004e-20
-1.3214523e-08
-2.3282108e-08
-3.0493328e-08
-3.5138755e-08
-3.7508962e-08
-3.7894523e-08
-3.6586010e-08
-3.3873996e-08
-3.0049055e-08
-2.5401758e-08
-2.0222679e-08
-1.4802391e-08
-9.4314665e-09
-4.4004785e-09
 0.0000000e+00
 3.5408017e-09
 6.2383810e-09
 8.1705981e-09
 9.4153130e-09
 1.0050386e-08
 1.0153676e-08
 9.8030445e-09
 9.0763509e-09
 8.0514551e-09
 6.8062174e-09
 5.4184977e-09
 3.9661561e-09
 2.5270526e-09
 1.1790472e-09
-7.9093380e-22
-9.4868352e-10
-1.6714161e-09
-2.1890649e-09
-2.5224973e-09
-2.6925804e-09
-2.7201816e-09
-2.6261680e-09
-2.4314070e-09
-2.1567658e-09
-1.8231116e-09
-1.4513117e-09
-1.0622334e-09
-6.7674378e-10
-3.1571024e-10
 2.1175125e-22
 2.5393241e-10
 4.4728324e-10
 5.8566146e-10
 6.7467604e-10
 7.1993594e-10
 7.2705012e-10
 7.0162756e-10
 6.4927722e-10
 5.7560806e-10
 4.8622905e-10
 3.8674915e-10
 2.8277733e-10
 1.7992255e-10
 8.3793789e-11
-5.6071182e-23
-6.7046110e-11
-1.1771689e-10
-1.5358095e-10
-1.7620690e-10
-1.8716336e-10
-1.8801893e-10
-1.8034223e-10
-1.6570186e-10
-1.4566643e-10
-1.2180457e-10
-9.5684873e-11
-6.8875957e-11
-4.2946433e-11
-1.9464910e-11
 1.2533480e-23
 1.4252034e-11
 2.3584323e-11
 2.8662345e-11
 3.0151579e-11
 2.8717503e-11
 2.5025597e-11
 1.9741337e-11
 1.3530204e-11
 7.0576752e-12
 9.8922970e-13
-4.0096540e-12
-7.2734974e-12
-8.1368219e-12
-5.9341490e-12
 0.0000000e+00
 1.0037973e-11
 2.3379598e-11
 3.8931571e-11
 5.5600588e-11
 7.2293347e-11
 8.7916544e-11
 1.0137688e-10
 1.1158104e-10
 1.1743573e-10
 1.1784765e-10
 1.1172349e-10
 9.7969947e-11
 7.5493721e-11
 4.3201506e-11
-3.6282522e-23
-5.4403927e-11
-1.1710271e-10
-1.8438863e-10
-2.5255393e-10
-3.1789089e-10
-3.7669177e-10
-4.2524884e-10
-4.5985436e-10
-4.7680061e-10
-4.7237983e-10
-4.4288430e-10
-3.8460629e-10
-2.9383806e-10
-1.6687187e-10
 1.3919283e-22
 2.0757774e-10
 4.4503126e-10
 6.9862294e-10
 9.5461514e-10
 1.1992702e-09
 1.4188505e-09
 1.5996185e-09
 1.7278364e-09
 1.7897667e-09
 1.7716717e-09
 1.6598137e-09
 1.4404552e-09
 1.0998585e-09
 6.2428599e-10
-5.2048879e-22
-7.7590702e-10
-1.6630223e-09
-2.6101031e-09
-3.5659066e-09
-4.4791900e-09
-5.2987104e-09
-5.9732251e-09
-6.4514913e-09
-6.6822661e-09
-6.6143068e-09
-6.1963706e-09
-5.3772146e-09
-4.1055960e-09
-2.3302721e-09
 1.9427623e-21
 2.8960503e-09
 6.2070581e-09
 9.7417896e-09
 1.3309011e-08
 1.6717490e-08
 1.9775991e-08
 2.2293282e-08
 2.4078129e-08
 2.4939298e-08
 2.4685556e-08
 2.3125669e-08
 2.0068403e-08
 1.5322526e-08
 8.6968024e-09
-7.2505605e-21
-1.0808294e-08
-2.3165210e-08
-3.6357055e-08
-4.9670139e-08
-6.2390769e-08
-7.3805254e-08
-8.3199903e-08
-8.9861024e-08
-9.3074925e-08
-9.2127916e-08
-8.6306304e-08
-7.4896398e-08
-5.7184506e-08
-3.2456937e-08
 2.7059480e-20
 4.0337127e-08
 8.6453782e-08
 1.3568643e-07
 1.8537154e-07
 2.3284559e-07
 2.7544503e-07
 3.1050633e-07
 3.3536597e-07
 3.4736040e-07
 3.4382611e-07
 3.2209955e-07
 2.7951719e-07
 2.1341550e-07
 1.2113095e-07
-2.0197472e-19
-1.5054021e-07
-3.2264992e-07
-5.0638867e-07
-6.9181604e-07
-8.6899157e-07
-1.0279748e-06
-1.1588254e-06
-1.2516028e-06
-1.2963667e-06
-1.2831765e-06
-1.2020919e-06
-1.0431724e-06
-7.9647749e-07
-4.5206685e-07
 0.0000000e+00
 5.6182373e-07
 1.2041459e-06
 1.8898682e-06
 2.5818926e-06
 3.2431207e-06
 3.8364544e-06
 4.3247953e-06
 4.6710454e-06
 4.8381064e-06
 4.7888800e-06
 4.4862680e-06
 3.8931722e-06
 2.9724945e-06
 1.6871365e-06
-1.4065725e-18
-2.0967547e-06
-4.4939336e-06
-7.0530843e-06
-9.6357544e-06
-1.2103491e-05
-1.4317843e-05
-1.6140356e-05
-1.7432579e-05
-1.8056059e-05
-1.7872343e-05
-1.6742980e-05
-1.4529517e-05
-1.1093500e-05
-6.2964790e-06
 5.2493999e-18
 7.8251950e-06
 1.6771589e-05
 2.6322469e-05
 3.5961125e-05
 4.5170844e-05
 5.3434916e-05
 6.0236628e-05
 6.5059270e-05
 6.7386129e-05
 6.6700493e-05
 6.2485652e-05
 5.4224894e-05
 4.1401507e-05
 2.3498780e-05
-1.9591027e-17
-2.9204025e-05
-6.2592421e-05
-9.8236792e-05
-1.3420874e-04
-1.6857989e-04
-1.9942182e-04
-2.2480616e-04
-2.4280450e-04
-2.5148846e-04
-2.4892963e-04
-2.3319963e-04
-2.0237006e-04
-1.5451253e-04
-8.7698639e-05
 7.3114708e-17
 1.0899091e-04
 2.3359809e-04
 3.6662470e-04
 5.0087385e-04
 6.2914870e-04
 7.4425237e-04
 8.3898800e-04
 9.0615873e-04
 9.3856769e-04
 9.2901803e-04
 8.7031286e-04
 7.5525535e-04
 5.7664860e-04
 3.2729578e-04
 0.0000000e+00
-4.0672997e-04
-8.7156292e-04
-1.3674620e-03
-1.8673904e-03
-2.3443112e-03
-2.7711877e-03
-3.1209829e-03
-3.3666601e-03
-3.4811823e-03
-3.4375128e-03
-3.2086148e-03
-2.7674513e-03
-2.0869856e-03
-1.1401808e-03
 1.0000000e-04
 1.6532905e-03
 3.5102121e-03
 5.6539833e-03
 8.0678225e-03
 1.0734948e-02
 1.3638578e-02
 1.6761932e-02
 2.0088227e-02
 2.3600682e-02
 2.7282515e-02
 3.1116945e-02
 3.5087190e-02
 3.9176469e-02
 4.3367999e-02
 4.7645000e-02
 5.1993533e-02
 5.6411030e-02
 6.0897769e-02
 6.5454025e-02
 7.0080075e-02
 7.4776195e-02
 7.9542661e-02
 8.4379749e-02
 8.9287736e-02
 9.4266898e-02
 9.9317511e-02
 1.0443985e-01
 1.0963420e-01
 1.1490082e-01
 1.2024000e-01
 1.2564986e-01
 1.3111991e-01
 1.3663750e-01
 1.4219000e-01
 1.4776475e-01
 1.5334912e-01
 1.5893047e-01
 1.6449614e-01
 1.7003349e-01
 1.7552989e-01
 1.8097269e-01
 1.8634924e-01
 1.9164691e-01
 1.9685304e-01
 2.0195500e-01
 2.0694077e-01
 2.1180083e-01
 2.1652630e-01
 2.2110831e-01
 2.2553795e-01
 2.2980635e-01
 2.3390462e-01
 2.3782388e-01
 2.4155525e-01
 2.4508982e-01
 2.4841874e-01
 2.5153309e-01
 2.5442401e-01
 2.5708261e-01
 2.5950000e-01
 2.6166838e-01
 2.6358427e-01
 2.6524528e-01
 2.6664901e-01
 2.6779307e-01
 2.6867507e-01
 2.6929261e-01
 2.6964329e-01
 2.6972472e-01
 2.6953451e-01
 2.6907026e-01
 2.6832958e-01
 2.6731008e-01
 2.6600935e-01
 2.6442500e-01
 2.6255694e-01
 2.6041423e-01
 2.5800826e-01
 2.5535038e-01
 2.5245198e-01
 2.4932441e-01
 2.4597905e-01
 2.4242726e-01
 2.3868042e-01
 2.3474990e-01
 2.3064707e-01
 2.2638329e-01
 2.2196994e-01
 2.1741839e-01
 2.1274000e-01
 2.0794601e-01
 2.0304711e-01
 1.9805384e-01
 1.9297676e-01
 1.8782643e-01
 1.8261338e-01
 1.7734818e-01
 1.7204137e-01
 1.6670350e-01
 1.6134513e-01
 1.5597681e-01
 1.5060908e-01
 1.4525250e-01
 1.3991763e-01
 1.3461500e-01
 1.2935407e-01
 1.2413989e-01
 1.1897638e-01
 1.1386748e-01
 1.0881713e-01
 1.0382927e-01
 9.8907831e-02
 9.4056754e-02
 8.9279973e-02
 8.4581427e-02
 7.9965052e-02
 7.5434785e-02
 7.0994563e-02
 6.6648322e-02
 6.2400000e-02
 5.8253847e-02
 5.4215365e-02
 5.0290374e-02
 4.6484688e-02
 4.2804126e-02
 3.9254503e-02
 3.5841638e-02
 3.2571346e-02
 2.9449446e-02
 2.6481753e-02
 2.3674085e-02
 2.1032259e-02
 1.8562091e-02
 1.6269399e-02
 1.4160000e-02
 1.2237200e-02
 1.0494270e-02
 8.9219691e-03
 7.5110569e-03
 6.2522935e-03
 5.1364386e-03
 4.1542521e-03
 3.2964937e-03
 2.5539234e-03
 1.9173010e-03
 1.3773862e-03
 9.2493887e-04
 5.5071885e-04
 2.4548596e-04
-1.6186500e-16
-1.9415076e-04
-3.4206430e-04
-4.4801019e-04
-5.1625797e-04
-5.5107720e-04
-5.5673742e-04
-5.3750818e-04
-4.9765904e-04
-4.4145954e-04
-3.7317924e-04
-2.9708770e-04
-2.1745445e-04
-1.3854905e-04
-6.4641047e-05
 4.3361157e-17
 5.2006978e-05
 9.1622503e-05
 1.1999163e-04
 1.3825940e-04
 1.4757087e-04
 1.4907108e-04
 1.4390510e-04
 1.3321796e-04
 1.1815473e-04
 9.9860442e-05
 7.9480154e-05
 5.8158916e-05
 3.7041777e-05
 1.7273788e-05
 0.0000000e+00
-1.3877155e-05
-2.4425709e-05
-3.1956313e-05
-3.6779616e-05
-3.9206269e-05
-3.9546921e-05
-3.8112223e-05
-3.5212823e-05
-3.1159373e-05
-2.6262522e-05
-2.0832920e-05
-1.5181217e-05
-9.6180622e-06
-4.4541067e-06
 2.9573620e-18
 3.5016413e-06
 6.0803334e-06
 7.8336259e-06
 8.8590683e-06
 9.2542102e-06
 9.1166012e-06
 8.5437907e-06
 7.6333283e-06
 6.4827635e-06
 5.1896459e-06
 3.8515251e-06
 2.5659506e-06
 1.4304718e-06
 5.4263846e-07
-2.4981831e-19
-1.2941031e-07
 1.0437560e-07
 6.2180949e-07
 1.3433431e-06
 2.1894282e-06
 3.0805166e-06
 3.9370601e-06
 4.6795103e-06
 5.2283190e-06
 5.5039381e-06
 5.4268193e-06
 4.9174143e-06
 3.8961749e-06
 2.2835529e-06
-1.9580888e-18
-2.9840001e-06
-6.4978358e-06
-1.0320864e-05
-1.4232441e-05
-1.8011923e-05
-2.1438668e-05
-2.4292031e-05
-2.6351369e-05
-2.7396040e-05
-2.7205398e-05
-2.5558802e-05
-2.2235608e-05
-1.7015171e-05
-9.6768500e-06
 8.0821735e-18
 1.2065411e-05
 2.5886968e-05
 4.0661646e-05
 5.5586420e-05
 6.9858265e-05
 8.2674154e-05
 9.3231063e-05
 1.0072597e-04
 1.0435584e-04
 1.0331766e-04
 9.6808390e-05
 8.4025017e-05
 6.4164511e-05
 3.6423847e-05
-3.0370605e-17
-4.6356160e-05
-1.0567818e-04
-1.8144572e-04
-2.7713842e-04
-3.9623595e-04
-5.4221795e-04
-7.1856407e-04
-9.2875398e-04
-1.1762673e-03
-1.4645837e-03
-1.7971829e-03
-2.1775445e-03
-2.6091481e-03
-3.0954734e-03
-3.6400000e-03
-4.2455474e-03
-4.9122942e-03
-5.6397588e-03
-6.4274594e-03
-7.2749145e-03
-8.1816424e-03
-9.1471614e-03
-1.0170990e-02
-1.1252647e-02
-1.2391649e-02
-1.3587517e-02
-1.4839767e-02
-1.6147919e-02
-1.7511490e-02
-1.8930000e-02
-2.0409700e-02
-2.1983779e-02
-2.3692159e-02
-2.5574763e-02
-2.7671514e-02
-3.0022333e-02
-3.2667143e-02
-3.5645867e-02
-3.8998426e-02
-4.2764745e-02
-4.6984744e-02
-5.1698347e-02
-5.6945475e-02
-6.2766052e-02
-6.9200000e-02
-7.6261531e-02
-8.3862018e-02
-9.1887124e-02
-1.0022251e-01
-1.0875385e-01
-1.1736679e-01
-1.2594700e-01
-1.3438015e-01
-1.4255189e-01
-1.5034789e-01
-1.5765382e-01
-1.6435533e-01
-1.7033808e-01
-1.7548776e-01
-1.7969000e-01
-1.8281359e-01
-1.8465975e-01
-1.8501278e-01
-1.8365703e-01
-1.8037681e-01
-1.7495644e-01
-1.6718025e-01
-1.5683256e-01
-1.4369770e-01
-1.2755999e-01
-1.0820375e-01
-8.5413311e-02
-5.8972989e-02
-2.8667111e-02
 5.7200000e-03
 4.4295546e-02
 8.6732834e-02
 1.3259670e-01
 1.8145197e-01
 2.3286348e-01
 2.8639606e-01
 3.4161455e-01
 3.9808378e-01
 4.5536858e-01
 5.1303378e-01
 5.7064422e-01
 6.2776473e-01
 6.8396014e-01
 7.3879529e-01
 7.9183500e-01
 8.4265287e-01
 8.9085747e-01
 9.3606615e-01
 9.7789626e-01
 1.0159651e+00
 1.0498901e+00
 1.0792885e+00
 1.1037776e+00
 1.1229749e+00
 1.1364976e+00
 1.1439632e+00
 1.1449888e+00
 1.1391920e+00
 1.1261899e+00
 1.1056000e+00
 1.0772271e+00
 1.0416261e+00
 9.9953945e-01
 9.5170955e-01
 8.9887884e-01
 8.4178974e-01
 7.8118466e-01
 7.1780604e-01
 6.5239630e-01
 5.8569786e-01
 5.1845314e-01
 4.5140458e-01
 3.8529458e-01
 3.2086558e-01
 2.5886000e-01
 1.9990021e-01
 1.4412838e-01
 9.1566613e-02
 4.2237031e-02
-3.8382553e-03
-4.6637134e-02
-8.6137491e-02
-1.2231721e-01
-1.5515419e-01
-1.8462630e-01
-2.1071144e-01
-2.3338749e-01
-2.5263235e-01
-2.6842389e-01
-2.8074000e-01
-2.8960464e-01
-2.9522603e-01
-2.9785846e-01
-2.9775622e-01
-2.9517360e-01
-2.9036488e-01
-2.8358436e-01
-2.7508633e-01
-2.6512507e-01
-2.5395488e-01
-2.4183004e-01
-2.2900484e-01
-2.1573357e-01
-2.0227053e-01
-1.8887000e-01
-1.7574799e-01
-1.6296742e-01
-1.5055293e-01
-1.3852914e-01
-1.2692069e-01
-1.1575222e-01
-1.0504837e-01
-9.4833770e-02
-8.5133056e-02
-7.5970864e-02
-6.7371832e-02
-5.9360593e-02
-5.1961784e-02
-4.5200041e-02
-3.9100000e-02
-3.3674758e-02
-2.8891261e-02
-2.4704916e-02
-2.1071131e-02
-1.7945314e-02
-1.5282871e-02
-1.3039211e-02
-1.1169741e-02
-9.6298681e-03
-8.3750004e-03
-7.3605452e-03
-6.5419101e-03
-5.8745025e-03
-5.3137300e-03
-4.8150000e-03
-4.3412887e-03
-3.8858460e-03
-3.4494906e-03
-3.0330411e-03
-2.6373160e-03
-2.2631340e-03
-1.9113136e-03
-1.5826734e-03
-1.2780321e-03
-9.9820812e-04
-7.4402015e-04
-5.1628677e-04
-3.1582655e-04
-1.4345810e-04
 9.5279387e-17
 1.1428443e-04
 2.0135290e-04
 2.6371840e-04
 3.0389393e-04
 3.2439246e-04
 3.2772698e-04
 3.1641047e-04
 2.9295594e-04
 2.5987635e-04
 2.1968470e-04
 1.7489397e-04
 1.2801715e-04
 8.1567221e-05
 3.8057177e-05
-2.5530009e-17
-3.0622380e-05
-5.3952262e-05
-7.0663001e-05
-8.1427951e-05
-8.6920469e-05
-8.7813910e-05
-8.4781628e-05
-7.8496980e-05
-6.9633319e-05
-5.8864002e-05
-4.6862383e-05
-3.4301819e-05
-2.1855663e-05
-1.0197272e-05
 1.3681294e-17
 8.2050953e-06
 1.4456151e-05
 1.8933600e-05
 2.1817880e-05
 2.3289423e-05
 2.3528665e-05
 2.2716040e-05
 2.1031983e-05
 1.8656928e-05
 1.5771311e-05
 1.2555566e-05
 9.1901281e-06
 5.8554311e-06
 2.7319102e-06
 0.0000000e+00
-2.1980012e-06
-3.8723405e-06
-5.0714013e-06
-5.8435672e-06
-6.2372217e-06
-6.3007481e-06
-6.0825300e-06
-5.6309509e-06
-4.9943942e-06
-4.2212435e-06
-3.3598821e-06
-2.4586936e-06
-1.5660614e-06
-7.3036905e-07
 4.8966725e-19
 5.8690940e-07
 1.0332113e-06
 1.3520048e-06
 1.5563893e-06
 1.6594639e-06
 1.6743279e-06
 1.6140805e-06
 1.4918210e-06
 1.3206486e-06
 1.1136625e-06
 8.8396198e-07
 6.4464623e-07
 4.0881449e-07
 1.8956600e-07
-1.2609051e-19
-1.4963640e-07
-2.6050453e-07
-3.3661786e-07
-3.8198983e-07
-4.0063391e-07
-3.9656353e-07
-3.7379216e-07
-3.3633326e-07
-2.8820027e-07
-2.3340665e-07
-1.7596585e-07
-1.1989134e-07
-6.9196553e-08
-2.7894956e-08
 1.4694777e-20
 1.1636200e-08
 8.8068891e-09
-5.5333495e-09
-2.8429931e-08
-5.6928273e-08
-8.8073790e-08
-1.1891190e-07
-1.4648802e-07
-1.6784756e-07
-1.8003594e-07
-1.8009857e-07
-1.6508088e-07
-1.3202828e-07
-7.7986179e-08
 1.3462280e-19
 1.0309160e-07
 2.2527698e-07
 3.5875126e-07
 4.9570956e-07
 6.2834700e-07
 7.4885869e-07
 8.4943976e-07
 9.2228532e-07
 9.5959049e-07
 9.5355039e-07
 8.9636014e-07
 7.8021486e-07
 5.9730966e-07
 3.3983967e-07
 0.0000000e+00
-4.2400259e-07
-9.0991480e-07
-1.4294717e-06
-1.9544083e-06
-2.4564597e-06
-2.9073610e-06
-3.2788471e-06
-3.5426533e-06
-3.6705144e-06
-3.6341656e-06
-3.4053420e-06
-2.9557786e-06
-2.2572104e-06
-1.2813725e-06
 1.0684501e-18
 1.5929188e-06
 3.4143822e-06
 5.3591355e-06
 7.3219237e-06
 9.1974919e-06
 1.0880585e-05
 1.2265949e-05
 1.3248328e-05
 1.3722467e-05
 1.3583112e-05
 1.2725008e-05
 1.1042899e-05
 8.4315319e-06
 4.7856504e-06
-3.9898601e-18
-5.9476725e-06
-1.2747614e-05
-2.0007070e-05
-2.7333286e-05
-3.4333508e-05
-4.0614980e-05
-4.5784948e-05
-4.9450658e-05
-5.1219354e-05
-5.0698283e-05
-4.7494690e-05
-4.1215819e-05
-3.1468917e-05
-1.7861229e-05
 1.4890990e-17
 2.2197771e-05
 4.7576074e-05
 7.4669146e-05
 1.0201122e-04
 1.2813654e-04
 1.5157933e-04
 1.7087384e-04
 1.8455430e-04
 1.9115495e-04
 1.8921002e-04
 1.7725375e-04
 1.5382038e-04
 1.1744414e-04
 6.6659265e-05
-5.5574101e-17
-8.2843412e-05
-1.7755668e-04
-2.7866951e-04
-3.8071160e-04
-4.7821265e-04
-5.6570236e-04
-6.3771042e-04
-6.8876655e-04
-7.1340044e-04
-7.0614180e-04
-6.6152031e-04
-5.7406569e-04
-4.3830763e-04
-2.4877583e-04
 2.0740541e-16
 3.1231662e-04
 6.8777658e-04
 1.1248089e-03
 1.6218426e-03
 2.1773066e-03
 2.7896301e-03
 3.4572419e-03
 4.1785712e-03
 4.9520468e-03
 5.7760979e-03
 6.6491534e-03
 7.5696424e-03
 8.5359938e-03
 9.5466367e-03
 1.0600000e-02
 1.1694860e-02
 1.2831381e-02
 1.4010074e-02
 1.5231451e-02
 1.6496023e-02
 1.7804302e-02
 1.9156799e-02
 2.0554026e-02
 2.1996493e-02
 2.3484713e-02
 2.5019197e-02
 2.6600456e-02
 2.8229002e-02
 2.9905346e-02
 3.1630000e-02
 3.3403598e-02
 3.5227266e-02
 3.7102256e-02
 3.9029815e-02
 4.1011194e-02
 4.3047642e-02
 4.5140409e-02
 4.7290746e-02
 4.9499901e-02
 5.1769124e-02
 5.4099664e-02
 5.6492773e-02
 5.8949698e-02
 6.1471691e-02
 6.4060000e-02
 6.6715734e-02
 6.9439435e-02
 7.2231504e-02
 7.5092342e-02
 7.8022351e-02
 8.1021930e-02
 8.4091482e-02
 8.7231406e-02
 9.0442104e-02
 9.3723977e-02
 9.7077426e-02
 1.0050285e-01
 1.0400066e-01
 1.0757124e-01
 1.1121500e-01
 1.1493213e-01
 1.1872195e-01
 1.2258357e-01
 1.2651610e-01
 1.3051866e-01
 1.3459036e-01
 1.3873030e-01
 1.4293760e-01
 1.4721136e-01
 1.5155071e-01
 1.5595474e-01
 1.6042258e-01
 1.6495333e-01
 1.6954610e-01
 1.7420000e-01
 1.7891390e-01
 1.8368563e-01
 1.8851278e-01
 1.9339296e-01
 1.9832374e-01
 2.0330272e-01
 2.0832749e-01
 2.1339564e-01
 2.1850477e-01
 2.2365245e-01
 2.2883629e-01
 2.3405388e-01
 2.3930279e-01
 2.4458064e-01
 2.4988500e-01
 2.5521320e-01
 2.6056147e-01
 2.6592578e-01
 2.7130209e-01
 2.7668638e-01
 2.8207460e-01
 2.8746272e-01
 2.9284671e-01
 2.9822253e-01
 3.0358615e-01
 3.0893353e-01
 3.1426064e-01
 3.1956344e-01
 3.2483791e-01
 3.3008000e-01
 3.3528574e-01
 3.4045140e-01
 3.4557330e-01
 3.5064776e-01
 3.5567111e-01
 3.6063968e-01
 3.6554979e-01
 3.7039776e-01
 3.7517992e-01
 3.7989259e-01
 3.8453210e-01
 3.8909477e-01
 3.9357693e-01
 3.9797489e-01
 4.0228500e-01
 4.0650292e-01
 4.1062172e-01
 4.1463383e-01
 4.1853168e-01
 4.2230768e-01
 4.2595427e-01
 4.2946388e-01
 4.3282891e-01
 4.3604180e-01
 4.3909498e-01
 4.4198087e-01
 4.4469189e-01
 4.4722047e-01
 4.4955903e-01
 4.5170000e-01
 4.5364029e-01
 4.5539479e-01
 4.5698286e-01
 4.5842389e-01
 4.5973723e-01
 4.6094226e-01
 4.6205836e-01
 4.6310489e-01
 4.6410122e-01
 4.6506674e-01
 4.6602080e-01
 4.6698279e-01
 4.6797207e-01
 4.6900802e-01
 4.7011000e-01
 4.7129049e-01
 4.7253434e-01
 4.7381951e-01
 4.7512396e-01
 4.7642563e-01
 4.7770248e-01
 4.7893248e-01
 4.8009357e-01
 4.8116370e-01
 4.8212084e-01
 4.8294294e-01
 4.8360794e-01
 4.8409382e-01
 4.8437852e-01
 4.8444000e-01
 4.8426132e-01
 4.8384597e-01
 4.8320257e-01
 4.8233971e-01
 4.8126600e-01
 4.7999005e-01
 4.7852045e-01
 4.7686581e-01
 4.7503473e-01
 4.7303583e-01
 4.7087770e-01
 4.6856895e-01
 4.6611818e-01
 4.6353399e-01
 4.6082500e-01
 4.5799860e-01
 4.5505736e-01
 4.5200269e-01
 4.4883594e-01
 4.4555851e-01
 4.4217178e-01
 4.3867711e-01
 4.3507590e-01
 4.3136952e-01
 4.2755935e-01
 4.2364678e-01
 4.1963318e-01
 4.1551993e-01
 4.1130841e-01
 4.0700000e-01
 4.0259644e-01
 3.9810088e-01
 3.9351684e-01
 3.8884783e-01
 3.8409735e-01
 3.7926893e-01
 3.7436607e-01
 3.6939229e-01
 3.6435110e-01
 3.5924601e-01
 3.5408053e-01
 3.4885818e-01
 3.4358247e-01
 3.3825690e-01
 3.3288500e-01
 3.2747024e-01
 3.2201596e-01
 3.1652547e-01
 3.1100209e-01
 3.0544912e-01
 2.9986986e-01
 2.9426764e-01
 2.8864575e-01
 2.8300752e-01
 2.7735624e-01
 2.7169522e-01
 2.6602778e-01
 2.6035722e-01
 2.5468686e-01
 2.4902000e-01
 2.4335999e-01
 2.3771033e-01
 2.3207454e-01
 2.2645618e-01
 2.2085877e-01
 2.1528585e-01
 2.0974096e-01
 2.0422763e-01
 1.9874939e-01
 1.9330979e-01
 1.8791235e-01
 1.8256062e-01
 1.7725813e-01
 1.7200841e-01
 1.6681500e-01
 1.6168109e-01
 1.5660847e-01
 1.5159859e-01
 1.4665289e-01
 1.4177283e-01
 1.3695984e-01
 1.3221537e-01
 1.2754088e-01
 1.2293779e-01
 1.1840757e-01
 1.1395166e-01
 1.0957150e-01
 1.0526854e-01
 1.0104422e-01
 9.6900000e-02
 9.2836253e-02
 8.8849115e-02
 8.4933657e-02
 8.1084949e-02
 7.7298064e-02
 7.3568071e-02
 6.9890041e-02
 6.6259046e-02
 6.2670156e-02
 5.9118443e-02
 5.5598976e-02
 5.2106828e-02
 4.8637069e-02
 4.5184769e-02
 4.1745000e-02
 3.8316649e-02
 3.4913867e-02
 3.1554624e-02
 2.8256886e-02
 2.5038621e-02
 2.1917799e-02
 1.8912386e-02
 1.6040351e-02
 1.3319662e-02
 1.0768287e-02
 8.4041935e-03
 6.2453502e-03
 4.3097248e-03
 2.6152854e-03
 1.1800000e-03
 1.5031506e-05
-8.9567795e-04
-1.5749914e-03
-2.0457718e-03
-2.3308822e-03
-2.4531857e-03
-2.4355452e-03
-2.3008237e-03
-2.0718843e-03
-1.7715900e-03
-1.4228038e-03
-1.0483886e-03
-6.7120761e-04
-3.1412373e-04
 4.2191828e-16
 2.5303841e-04
 4.4581768e-04
 5.8390185e-04
 6.7285495e-04
 7.1824099e-04
 7.2562402e-04
 7.0056805e-04
 6.4863712e-04
 5.7539525e-04
 4.8640648e-04
 3.8723483e-04
 2.8344432e-04
 1.8059900e-04
 8.4262883e-05
-5.6526331e-17
-6.7801437e-05
-1.1945649e-04
-1.5645603e-04
-1.8029094e-04
-1.9245209e-04
-1.9443037e-04
-1.8771664e-04
-1.7380179e-04
-1.5417669e-04
-1.3033222e-04
-1.0375926e-04
-7.5948678e-05
-4.8391356e-05
-2.2578171e-05
 1.5146185e-17
 1.8167340e-05
 3.2008270e-05
 4.1922267e-05
 4.8308812e-05
 5.1567383e-05
 5.2097460e-05
 5.0298523e-05
 4.6570050e-05
 4.1311520e-05
 3.4922414e-05
 2.7802210e-05
 2.0350387e-05
 1.2966425e-05
 6.0498028e-06
-4.0584080e-18
-4.8679242e-06
-8.5765900e-06
-1.1233038e-05
-1.2944307e-05
-1.3817439e-05
-1.3959472e-05
-1.3477449e-05
-1.2478407e-05
-1.1069389e-05
-9.3574326e-06
-7.4495796e-06
-5.4528697e-06
-3.4743431e-06
-1.6210398e-06
 1.0874471e-18
 1.3043564e-06
 2.2980904e-06
 3.0098833e-06
 3.4684166e-06
 3.7023715e-06
 3.7404294e-06
 3.6112715e-06
 3.3435791e-06
 2.9660337e-06
 2.5073165e-06
 1.9961088e-06
 1.4610920e-06
 9.3094742e-07
 4.3435630e-07
-2.9138058e-19
-3.4950123e-07
-6.1577145e-07
-8.0649581e-07
-9.2935943e-07
-9.9204745e-07
-1.0022450e-06
-9.6763726e-07
-8.9590932e-07
-7.9474632e-07
-6.7183342e-07
-5.3485574e-07
-3.9149842e-07
-2.4944660e-07
-1.1638541e-07
 7.8075188e-20
 9.3648567e-08
 1.6499545e-07
 2.1609988e-07
 2.4902108e-07
 2.6581828e-07
 2.6855070e-07
 2.5927758e-07
 2.4005813e-07
 2.1295159e-07
 1.8001717e-07
 1.4331412e-07
 1.0490165e-07
 6.6838985e-08
 3.1185360e-08
-2.0920169e-20
-2.5093036e-08
-4.4210352e-08
-5.7903716e-08
-6.6724899e-08
-7.1225669e-08
-7.1957797e-08
-6.9473052e-08
-6.4323203e-08
-5.7060020e-08
-4.8235272e-08
-3.8400730e-08
-2.8108162e-08
-1.7909338e-08
-8.3560274e-09
 5.6054885e-21
 6.7235784e-09
 1.1845956e-08
 1.5514983e-08
 1.7878513e-08
 1.9084396e-08
 1.9280484e-08
 1.8614629e-08
 1.7234682e-08
 1.5288494e-08
 1.2923917e-08
 1.0288802e-08
 7.5310019e-09
 4.7983671e-09
 2.2387493e-09
 0.0000000e+00
-1.8012772e-09
-3.1734708e-09
-4.1562175e-09
-4.7891536e-09
-5.1119157e-09
-5.1641403e-09
-4.9854640e-09
-4.6155232e-09
-4.0939544e-09
-3.4603942e-09
-2.7544792e-09
-2.0158457e-09
-1.2841303e-09
-5.9896958e-10
 4.0165045e-22
 4.8153043e-10
 8.4792775e-10
 1.1098865e-09
 1.2781013e-09
 1.3632665e-09
 1.3760769e-09
 1.3272269e-09
 1.2274111e-09
 1.0873241e-09
 9.1766029e-10
 7.2911436e-10
 5.3238081e-10
 3.3815420e-10
 1.5712908e-10
-1.0481705e-22
-1.2484453e-10
-2.1824016e-10
-2.8332858e-10
-3.2325146e-10
-3.4115049e-10
-3.4016736e-10
-3.2344376e-10
-2.9412136e-10
-2.5534186e-10
-2.1024694e-10
-1.6197828e-10
-1.1367757e-10
-6.8486499e-11
-2.9546747e-11
 1.7617770e-23
 1.7847702e-11
 2.5032903e-11
 2.3427796e-11
 1.4904571e-11
 1.3354203e-12
-1.5407466e-11
-3.3451897e-11
-5.0925681e-11
-6.5956627e-11
-7.6672544e-11
-8.1201240e-11
-7.7670525e-11
-6.4208208e-11
-3.8942096e-11
 6.8691944e-23
 5.3453727e-11
 1.1810855e-10
 1.8961739e-10
 2.6363317e-10
 3.3580881e-10
 4.0179723e-10
 4.5725135e-10
 4.9782409e-10
 5.1916837e-10
 5.1693711e-10
 4.8678324e-10
 4.2435967e-10
 3.2531933e-10
 1.8531513e-10
-1.5500166e-22
-2.3166261e-10
-4.9746711e-10
-7.8189737e-10
-1.0694373e-09
-1.3445707e-09
-1.5917814e-09
-1.7955535e-09
-1.9403707e-09
-2.0107168e-09
-1.9910759e-09
-1.8659317e-09
-1.6197682e-09
-1.2370691e-09
-7.0231843e-10
 5.8566067e-22
 8.7319671e-10
 1.8717599e-09
 2.9379721e-09
 4.0141159e-09
 5.0424738e-09
 5.9653286e-09
 6.7249626e-09
 7.2636586e-09
 7.5236990e-09
 7.4473665e-09
 6.9769436e-09
 6.0547130e-09
 4.6229571e-09
 2.6239586e-09
-2.1876410e-21
-3.2611242e-09
-6.9895724e-09
-1.0969991e-08
-1.4987026e-08
-1.8825325e-08
-2.2269533e-08
-2.5104297e-08
-2.7114264e-08
-2.8084079e-08
-2.7798390e-08
-2.6041843e-08
-2.2599084e-08
-1.7254759e-08
-9.7935159e-09
 8.1649033e-21
 1.2171300e-08
 2.6086530e-08
 4.0941992e-08
 5.5933989e-08
 7.0258825e-08
 8.3112803e-08
 9.3692225e-08
 1.0119340e-07
 1.0481262e-07
 1.0374619e-07
 9.7190428e-08
 8.4341622e-08
 6.4396080e-08
 3.6550105e-08
-3.0471972e-20
-4.5424077e-08
-9.7356547e-08
-1.5279798e-07
-2.0874893e-07
-2.6220997e-07
-3.1018168e-07
-3.4966460e-07
-3.7765932e-07
-3.9116639e-07
-3.8718639e-07
-3.6271987e-07
-3.1476740e-07
-2.4032956e-07
-1.3640690e-07
 1.1372299e-19
 1.6952501e-07
 3.6333966e-07
 5.7024991e-07
 7.7906173e-07
 9.7858107e-07
 1.1576139e-06
 1.3049662e-06
 1.4094439e-06
 1.4598530e-06
 1.4449994e-06
 1.3536890e-06
 1.1747280e-06
 8.9692216e-07
 5.0907751e-07
-4.2441997e-19
-6.3267595e-07
-1.3560021e-06
-2.1282017e-06
-2.9074980e-06
-3.6521143e-06
-4.3202740e-06
-4.8702002e-06
-5.2601162e-06
-5.4482454e-06
-5.3928110e-06
-5.0520363e-06
-4.3841446e-06
-3.3473591e-06
-1.8999031e-06
 1.5839569e-18
 2.3611788e-06
 5.0606687e-06
 7.9425567e-06
 1.0850930e-05
 1.3629876e-05
 1.6123482e-05
 1.8175834e-05
 1.9631021e-05
 2.0333129e-05
 2.0126245e-05
 1.8854456e-05
 1.6361850e-05
 1.2492514e-05
 7.0905351e-06
 0.0000000e+00
-8.8120392e-06
-1.8886673e-05
-2.9642025e-05
-4.0496223e-05
-5.0867391e-05
-6.0173654e-05
-6.7833138e-05
-7.3263968e-05
-7.5884269e-05
-7.5112168e-05
-7.0365789e-05
-6.1063257e-05
-4.6622698e-05
-2.6462237e-05
 4.4123347e-17
 3.2886978e-05
 7.0486022e-05
 1.1062554e-04
 1.5113396e-04
 1.8983969e-04
 2.2457113e-04
 2.5315672e-04
 2.7342485e-04
 2.8320395e-04
 2.8032243e-04
 2.6260870e-04
 2.2789118e-04
 1.7399828e-04
 9.8758413e-05
 0.0000000e+00
-1.2045439e-04
-2.4480556e-04
-3.5126015e-04
-4.1802481e-04
-4.2330617e-04
-3.4531088e-04
-1.6224558e-04
 1.4768309e-04
 6.0626847e-04
 1.2353039e-03
 2.0565828e-03
 3.0918986e-03
 4.3630444e-03
 5.8918138e-03
 7.7000000e-03
 9.8031069e-03
 1.2191480e-02
 1.4849175e-02
 1.7760248e-02
 2.0908755e-02
 2.4278752e-02
 2.7854295e-02
 3.1619440e-02
 3.5558242e-02
 3.9654758e-02
 4.3893044e-02
 4.8257155e-02
 5.2731147e-02
 5.7299077e-02
 6.1945000e-02
 6.6655446e-02
 7.1426840e-02
 7.6258080e-02
 8.1148064e-02
 8.6095692e-02
 9.1099861e-02
 9.6159471e-02
 1.0127342e-01
 1.0644060e-01
 1.1165992e-01
 1.1693028e-01
 1.2225056e-01
 1.2761968e-01
 1.3303653e-01
 1.3850000e-01
 1.4400690e-01
 1.4954562e-01
 1.5510247e-01
 1.6066372e-01
 1.6621570e-01
 1.7174468e-01
 1.7723697e-01
 1.8267887e-01
 1.8805667e-01
 1.9335666e-01
 1.9856515e-01
 2.0366843e-01
 2.0865280e-01
 2.1350456e-01
 2.1821000e-01
 2.2275654e-01
 2.2713608e-01
 2.3134166e-01
 2.3536629e-01
 2.3920300e-01
 2.4284481e-01
 2.4628475e-01
 2.4951585e-01
 2.5253113e-01
 2.5532362e-01
 2.5788633e-01
 2.6021230e-01
 2.6229455e-01
 2.6412611e-01
 2.6570000e-01
 2.6701036e-01
 2.6805579e-01
 2.6883602e-01
 2.6935076e-01
 2.6959972e-01
 2.6958264e-01
 2.6929922e-01
 2.6874918e-01
 2.6793224e-01
 2.6684813e-01
 2.6549655e-01
 2.6387723e-01
 2.6198989e-01
 2.5983424e-01
 2.5741000e-01
 2.5471916e-01
 2.5177278e-01
 2.4858418e-01
 2.4516670e-01
 2.4153366e-01
 2.3769840e-01
 2.3367424e-01
 2.2947450e-01
 2.2511253e-01
 2.2060164e-01
 2.1595517e-01
 2.1118644e-01
 2.0630878e-01
 2.0133553e-01
 1.9628000e-01
 1.9115481e-01
 1.8596971e-01
 1.8073370e-01
 1.7545581e-01
 1.7014507e-01
 1.6481049e-01
 1.5946109e-01
 1.5410589e-01
 1.4875392e-01
 1.4341420e-01
 1.3809574e-01
 1.3280757e-01
 1.2755871e-01
 1.2235818e-01
 1.1721500e-01
 1.1213707e-01
 1.0712780e-01
 1.0218950e-01
 9.7324451e-02
 9.2534952e-02
 8.7823296e-02
 8.3191780e-02
 7.8642697e-02
 7.4178342e-02
 6.9801010e-02
 6.5512995e-02
 6.1316592e-02
 5.7214095e-02
 5.3207800e-02
 4.9300000e-02
 4.5493849e-02
 4.1795933e-02
 3.8213698e-02
 3.4754589e-02
 3.1426050e-02
 2.8235528e-02
 2.5190467e-02
 2.2298312e-02
 1.9566509e-02
 1.7002502e-02
 1.4613738e-02
 1.2407660e-02
 1.0391714e-02
 8.5733459e-03
 6.9600000e-03
 5.5554402e-03
 4.3487039e-03
 3.3251470e-03
 2.4701253e-03
 1.7689948e-03
 1.2071114e-03
 7.6983090e-04
 4.4250926e-04
 2.1050234e-04
 5.9166041e-05
-2.6143747e-05
-6.0071136e-05
-5.7260235e-05
-3.2355153e-05
 0.0000000e+00
 2.7702939e-05
 4.8818680e-05
 6.3954060e-05
 7.3715919e-05
 7.8711097e-05
 7.9546432e-05
 7.6828764e-05
 7.1164931e-05
 6.3161774e-05
 5.3426131e-05
 4.2564841e-05
 3.1184744e-05
 1.9892679e-05
 9.2954844e-06
-1.2497188e-17
-7.5141717e-06
-1.3276375e-05
-1.7443189e-05
-2.0171196e-05
-2.1616976e-05
-2.1937110e-05
-2.1288177e-05
-1.9826759e-05
-1.7709435e-05
-1.5092787e-05
-1.2133396e-05
-8.9878406e-06
-5.8127025e-06
-2.7645622e-06
 3.8052222e-18
 2.3537474e-06
 4.2868190e-06
 5.8186977e-06
 6.9688667e-06
 7.7568087e-06
 8.2020068e-06
 8.3239439e-06
 8.1421029e-06
 7.6759669e-06
 6.9450188e-06
 5.9687415e-06
 4.7666181e-06
 3.3581313e-06
 1.7627643e-06
 0.0000000e+00
-1.9008177e-06
-3.8709012e-06
-5.8316015e-06
-7.7042702e-06
-9.4102583e-06
-1.0870917e-05
-1.2007599e-05
-1.2741653e-05
-1.2994432e-05
-1.2687288e-05
-1.1741570e-05
-1.0078632e-05
-7.6198228e-06
-4.2864952e-06
 7.0895810e-18
 5.2495236e-06
 1.1196786e-05
 1.7507708e-05
 2.3848214e-05
 2.9884225e-05
 3.5281663e-05
 3.9706450e-05
 4.2824509e-05
 4.4301763e-05
 4.3804132e-05
 4.0997540e-05
 3.5547909e-05
 2.7121160e-05
 1.5383216e-05
 0.0000000e+00
-1.9097277e-05
-4.0916242e-05
-6.4199232e-05
-8.7688586e-05
-1.1012664e-04
-1.3025573e-04
-1.4681820e-04
-1.5855638e-04
-1.6421262e-04
-1.6252924e-04
-1.5224859e-04
-1.3211300e-04
-1.0086482e-04
-5.7246370e-05
 9.5448912e-17
 7.1139583e-05
 1.5246818e-04
 2.3928922e-04
 3.2690613e-04
 4.1062234e-04
 4.8574127e-04
 5.4756636e-04
 5.9140103e-04
 6.1254871e-04
 6.0631283e-04
 5.6799682e-04
 4.9290410e-04
 3.7633811e-04
 2.1360226e-04
-3.5616102e-16
-2.6768920e-04
-5.8678167e-04
-9.5311765e-04
-1.3625374e-03
-1.8108812e-03
-2.2939893e-03
-2.8077020e-03
-3.3478596e-03
-3.9103022e-03
-4.4908702e-03
-5.0854039e-03
-5.6897434e-03
-6.2997291e-03
-6.9112012e-03
-7.5200000e-03
-8.1251368e-03
-8.7383074e-03
-9.3743786e-03
-1.0048217e-02
-1.0774690e-02
-1.1568664e-02
-1.2445006e-02
-1.3418582e-02
-1.4504260e-02
-1.5716906e-02
-1.7071387e-02
-1.8582570e-02
-2.0265322e-02
-2.2134510e-02
-2.4205000e-02
-2.6492836e-02
-2.9018769e-02
-3.1804728e-02
-3.4872640e-02
-3.8244433e-02
-4.1942035e-02
-4.5987375e-02
-5.0402380e-02
-5.5208979e-02
-6.0429098e-02
-6.6084668e-02
-7.2197615e-02
-7.8789867e-02
-8.5883353e-02
-9.3500000e-02
-1.0163179e-01
-1.1015093e-01
-1.1889967e-01
-1.2772027e-01
-1.3645499e-01
-1.4494608e-01
-1.5303579e-01
-1.6056640e-01
-1.6738015e-01
-1.7331929e-01
-1.7822610e-01
-1.8194281e-01
-1.8431170e-01
-1.8517501e-01
-1.8437500e-01
-1.8175344e-01
-1.7715015e-01
-1.7040443e-01
-1.6135562e-01
-1.4984303e-01
-1.3570598e-01
-1.1878380e-01
-9.8915806e-02
-7.5941317e-02
-4.9699657e-02
-2.0030144e-02
 1.3227899e-02
 5.0235151e-02
 9.1152292e-02
 1.3614000e-01
 1.8522868e-01
 2.3792767e-01
 2.9361600e-01
 3.5167273e-01
 4.1147692e-01
 4.7240761e-01
 5.3384385e-01
 5.9516470e-01
 6.5574922e-01
 7.1497644e-01
 7.7222542e-01
 8.2687522e-01
 8.7830488e-01
 9.2589346e-01
 9.6902000e-01
 1.0071579e+00
 1.0401581e+00
 1.0679657e+00
 1.0905260e+00
 1.1077843e+00
 1.1196856e+00
 1.1261753e+00
 1.1271986e+00
 1.1227006e+00
 1.1126267e+00
 1.0969220e+00
 1.0755318e+00
 1.0484012e+00
 1.0154755e+00
 9.7670000e-01
 9.3214338e-01
 8.8236876e-01
 8.2806280e-01
 7.6991215e-01
 7.0860348e-01
 6.4482344e-01
 5.7925869e-01
 5.1259589e-01
 4.4552169e-01
 3.7872275e-01
 3.1288573e-01
 2.4869729e-01
 1.8684408e-01
 1.2801277e-01
 7.2890000e-02
 2.2027757e-02
-2.4560731e-02
-6.6996915e-02
-1.0540225e-01
-1.3989818e-01
-1.7060617e-01
-1.9764766e-01
-2.2114411e-01
-2.4121696e-01
-2.5798768e-01
-2.7157771e-01
-2.8210851e-01
-2.8970152e-01
-2.9447820e-01
-2.9656000e-01
-2.9608520e-01
-2.9325939e-01
-2.8830498e-01
-2.8144438e-01
-2.7290001e-01
-2.6289429e-01
-2.5164962e-01
-2.3938842e-01
-2.2633311e-01
-2.1270610e-01
-1.9872980e-01
-1.8462662e-01
-1.7061899e-01
-1.5692931e-01
-1.4378000e-01
-1.3135275e-01
-1.1966639e-01
-1.0869902e-01
-9.8428724e-02
-8.8833618e-02
-7.9891800e-02
-7.1581370e-02
-6.3880429e-02
-5.6767077e-02
-5.0219416e-02
-4.4215546e-02
-3.8733569e-02
-3.3751585e-02
-2.9247695e-02
-2.5200000e-02
-2.1585824e-02
-1.8379384e-02
-1.5554120e-02
-1.3083474e-02
-1.0940884e-02
-9.0997917e-03
-7.5336372e-03
-6.2158608e-03
-5.1199028e-03
-4.2192035e-03
-3.4872033e-03
-2.8973426e-03
-2.4230615e-03
-2.0378006e-03
-1.7150000e-03
-1.4321572e-03
-1.1829973e-03
-9.6530269e-04
-7.7685560e-04
-6.1543828e-04
-4.7883300e-04
-3.6482201e-04
-2.7118758e-04
-1.9571196e-04
-1.3617742e-04
-9.0366219e-05
-5.6060615e-05
-3.1042870e-05
-1.3095245e-05
 0.0000000e+00
 1.0128099e-05
 1.7844263e-05
 2.3371200e-05
 2.6931616e-05
 2.8748219e-05
 2.9043715e-05
 2.8040811e-05
 2.5962214e-05
 2.3030631e-05
 1.9468768e-05
 1.5499332e-05
 1.1345031e-05
 7.2285706e-06
 3.3726579e-06
 0.0000000e+00
-2.7137606e-06
-4.7812374e-06
-6.2621082e-06
-7.2160509e-06
-7.7027431e-06
-7.7818627e-06
-7.5130873e-06
-6.9560949e-06
-6.1705630e-06
-5.2161696e-06
-4.1525923e-06
-3.0395089e-06
-1.9365972e-06
-9.0353500e-07
 1.2121841e-18
 7.2694368e-07
 1.2806866e-06
 1.6772330e-06
 1.9325871e-06
 2.0627531e-06
 2.0837353e-06
 2.0115379e-06
 1.8621651e-06
 1.6516211e-06
 1.3959102e-06
 1.1110366e-06
 8.1300460e-07
 5.1781833e-07
 2.4148205e-07
 0.0000000e+00
-1.9401416e-07
-3.4150902e-07
-4.4682374e-07
-5.1429745e-07
-5.4826932e-07
-5.5307850e-07
-5.3306413e-07
-4.9256538e-07
-4.3592139e-07
-3.6747131e-07
-2.9155431e-07
-2.1250952e-07
-1.3467610e-07
-6.2393214e-08
 0.0000000e+00
 4.9112974e-08
 8.5349499e-08
 1.1006195e-07
 1.2460272e-07
 1.3032417e-07
 1.2857869e-07
 1.2071866e-07
 1.0809645e-07
 9.2064449e-08
 7.3975033e-08
 5.5180581e-08
 3.7033473e-08
 2.0886087e-08
 8.0908028e-09
-7.8274706e-21
-2.4377330e-09
 1.1102962e-10
 6.5759229e-09
 1.5886582e-08
 2.6972642e-08
 3.8763737e-08
 5.0189504e-08
 6.0179576e-08
 6.7663590e-08
 7.1571180e-08
 7.0831981e-08
 6.4375629e-08
 5.1131758e-08
 3.0030003e-08
 0.0000000e+00
-3.9362042e-08
-8.5793617e-08
-1.3636564e-07
-1.8814904e-07
-2.3821474e-07
-2.8363364e-07
-3.2147667e-07
-3.4881476e-07
-3.6271881e-07
-3.6025975e-07
-3.3850851e-07
-2.9453599e-07
-2.2541312e-07
-1.2821081e-07
 2.1418634e-19
 1.5988590e-07
 3.4306344e-07
 5.3888666e-07
 7.3670960e-07
 9.2588630e-07
 1.0957708e-06
 1.2357172e-06
 1.3350794e-06
 1.3832116e-06
 1.3694678e-06
 1.2832020e-06
 1.1137683e-06
 8.5052071e-07
 4.8281326e-07
-8.0515566e-19
-6.0018156e-07
-1.2864601e-06
-2.0191810e-06
-2.7586893e-06
-3.4653305e-06
-4.0994496e-06
-4.6213921e-06
-4.9915030e-06
-5.1701278e-06
-5.1176116e-06
-4.7942997e-06
-4.1605373e-06
-3.1766697e-06
-1.8030422e-06
 0.0000000e+00
 2.2408404e-06
 4.8027771e-06
 7.5378373e-06
 1.0298048e-05
 1.2935436e-05
 1.5302028e-05
 1.7249851e-05
 1.8630933e-05
 1.9297299e-05
 1.9100978e-05
 1.7893997e-05
 1.5528381e-05
 1.1856158e-05
 6.7293556e-06
-1.1220590e-17
-8.3631799e-06
-1.7924648e-05
-2.8132168e-05
-3.8433502e-05
-4.8276412e-05
-5.7108661e-05
-6.4378012e-05
-6.9532228e-05
-7.2019070e-05
-7.1286302e-05
-6.6781687e-05
-5.7952986e-05
-4.4247963e-05
-2.5114380e-05
 0.0000000e+00
 3.1211879e-05
 6.6895816e-05
 1.0499084e-04
 1.4343596e-04
 1.8017021e-04
 2.1313262e-04
 2.4026220e-04
 2.5949798e-04
 2.6877898e-04
 2.6604423e-04
 2.4923275e-04
 2.1628356e-04
 1.6513569e-04
 9.3728165e-05
-1.5628310e-16
-1.1643545e-04
-2.4926751e-04
-3.9051117e-04
-5.3218145e-04
-6.6629332e-04
-7.8486181e-04
-8.7990189e-04
-9.4342857e-04
-9.6745685e-04
-9.4400173e-04
-8.6507820e-04
-7.2270127e-04
-5.0888592e-04
-2.1564717e-04
 1.6500000e-04
 6.3887954e-04
 1.2031712e-03
 1.8528939e-03
 2.5830661e-03
 3.3887068e-03
 4.2648346e-03
 5.2064683e-03
 6.2086267e-03
 7.2663284e-03
 8.3745923e-03
 9.5284371e-03
 1.0722882e-02
 1.1952944e-02
 1.3213644e-02
 1.4500000e-02
 1.5808283e-02
 1.7139777e-02
 1.8497016e-02
 1.9882536e-02
 2.1298874e-02
 2.2748563e-02
 2.4234141e-02
 2.5758143e-02
 2.7323103e-02
 2.8931558e-02
 3.0586044e-02
 3.2289095e-02
 3.4043248e-02
 3.5851038e-02
 3.7715000e-02
 3.9637374e-02
 4.1619216e-02
 4.3661283e-02
 4.5764336e-02
 4.7929132e-02
 5.0156432e-02
 5.2446994e-02
 5.4801576e-02
 5.7220939e-02
 5.9705841e-02
 6.2257041e-02
 6.4875298e-02
 6.7561370e-02
 7.0316018e-02
 7.3140000e-02
 7.6033950e-02
 7.8998004e-02
 8.2032172e-02
 8.5136465e-02
 8.8310894e-02
 9.1555469e-02
 9.4870201e-02
 9.8255102e-02
 1.0171018e-01
 1.0523545e-01
 1.0883092e-01
 1.1249659e-01
 1.1623249e-01
 1.2003863e-01
 1.2391500e-01
 1.2786148e-01
 1.3187734e-01
 1.3596171e-01
 1.4011371e-01
 1.4433248e-01
 1.4861713e-01
 1.5296680e-01
 1.5738062e-01
 1.6185770e-01
 1.6639718e-01
 1.7099819e-01
 1.7565984e-01
 1.8038128e-01
 1.8516162e-01
 1.9000000e-01
 1.9489516e-01
 1.9984437e-01
 2.0484451e-01
 2.0989246e-01
 2.1498512e-01
 2.2011936e-01
 2.2529208e-01
 2.3050015e-01
 2.3574046e-01
 2.4100990e-01
 2.4630535e-01
 2.5162371e-01
 2.5696184e-01
 2.6231664e-01
 2.6768500e-01
 2.7306369e-01
 2.7844906e-01
 2.8383737e-01
 2.8922486e-01
 2.9460778e-01
 2.9998238e-01
 3.0534490e-01
 3.1069159e-01
 3.1601870e-01
 3.2132247e-01
 3.2659916e-01
 3.3184501e-01
 3.3705627e-01
 3.4222918e-01
 3.4736000e-01
 3.5244468e-01
 3.5747805e-01
 3.6245464e-01
 3.6736897e-01
 3.7221560e-01
 3.7698904e-01
 3.8168384e-01
 3.8629452e-01
 3.9081563e-01
 3.9524169e-01
 3.9956724e-01
 4.0378681e-01
 4.0789494e-01
 4.1188616e-01
 4.1575500e-01
 4.1949686e-01
 4.2311060e-01
 4.2659593e-01
 4.2995255e-01
 4.3318020e-01
 4.3627858e-01
 4.3924741e-01
 4.4208640e-01
 4.4479527e-01
 4.4737373e-01
 4.4982151e-01
 4.5213831e-01
 4.5432384e-01
 4.5637784e-01
 4.5830000e-01
 4.6009163e-01
 4.6176038e-01
 4.6331546e-01
 4.6476612e-01
 4.6612157e-01
 4.6739105e-01
 4.6858377e-01
 4.6970898e-01
 4.7077589e-01
 4.7179374e-01
 4.7277176e-01
 4.7371916e-01
 4.7464518e-01
 4.7555906e-01
 4.7647000e-01
 4.7738318e-01
 4.7828746e-01
 4.7916766e-01
 4.8000857e-01
 4.8079500e-01
 4.8151176e-01
 4.8214365e-01
 4.8267547e-01
 4.8309204e-01
 4.8337814e-01
 4.8351860e-01
 4.8349821e-01
 4.8330177e-01
 4.8291410e-01
 4.8232000e-01
 4.8150805e-01
 4.8048194e-01
 4.7924915e-01
 4.7781715e-01
 4.7619342e-01
 4.7438543e-01
 4.7240066e-01
 4.7024657e-01
 4.6793064e-01
 4.6546035e-01
 4.6284317e-01
 4.6008657e-01
 4.5719803e-01
 4.5418501e-01
 4.5105500e-01
 4.4781450e-01
 4.4446619e-01
 4.4101175e-01
 4.3745289e-01
 4.3379130e-01
 4.3002870e-01
 4.2616678e-01
 4.2220724e-01
 4.1815179e-01
 4.1400211e-01
 4.0975992e-01
 4.0542691e-01
 4.0100479e-01
 3.9649525e-01
 3.9190000e-01
 3.8722101e-01
 3.8246135e-01
 3.7762439e-01
 3.7271346e-01
 3.6773192e-01
 3.6268311e-01
 3.5757040e-01
 3.5239713e-01
 3.4716665e-01
 3.4188231e-01
 3.3654746e-01
 3.3116546e-01
 3.2573964e-01
 3.2027337e-01
 3.1477000e-01
 3.0923292e-01
 3.0366570e-01
 2.9807199e-01
 2.9245539e-01
 2.8681955e-01
 2.8116808e-01
 2.7550461e-01
 2.6983277e-01
 2.6415618e-01
 2.5847847e-01
 2.5280326e-01
 2.4713419e-01
 2.4147487e-01
 2.3582893e-01
 2.3020000e-01
 2.2459163e-01
 2.1900706e-01
 2.1344946e-01
 2.0792200e-01
 2.0242785e-01
 1.9697016e-01
 1.9155212e-01
 1.8617689e-01
 1.8084763e-01
 1.7556752e-01
 1.7033972e-01
 1.6516740e-01
 1.6005373e-01
 1.5500187e-01
 1.5001500e-01
 1.4509572e-01
 1.4024445e-01
 1.3546104e-01
 1.3074534e-01
 1.2609721e-01
 1.2151650e-01
 1.1700307e-01
 1.1255676e-01
 1.0817744e-01
 1.0386496e-01
 9.9619168e-02
 9.5439922e-02
 9.1327076e-02
 8.7280484e-02
 8.3300000e-02
 7.9385504e-02
 7.5536983e-02
 7.1754446e-02
 6.8037905e-02
 6.4387373e-02
 6.0802860e-02
 5.7284377e-02
 5.3831937e-02
 5.0445551e-02
 4.7125230e-02
 4.3870985e-02
 4.0682828e-02
 3.7560771e-02
 3.4504824e-02
 3.1515000e-02
 2.8592889e-02
 2.5746398e-02
 2.2985014e-02
 2.0318225e-02
 1.7755517e-02
 1.5306377e-02
 1.2980291e-02
 1.0786747e-02
 8.7352321e-03
 6.8352319e-03
 5.0962339e-03
 3.5277249e-03
 2.1391916e-03
 9.4012107e-04
-6.0000000e-05
-8.5620715e-04
-1.4616257e-03
-1.8939032e-03
-2.1706875e-03
-2.3096262e-03
-2.3283671e-03
-2.2445577e-03
-2.0758459e-03
-1.8398793e-03
-1.5543056e-03
-1.2367725e-03
-9.0492773e-04
-5.7641891e-04
-2.6889377e-04
 3.6074183e-16
 2.1634886e-04
 3.8117591e-04
 4.9923844e-04
 5.7529369e-04
 6.1409894e-04
 6.2041145e-04
 5.9898850e-04
 5.5458735e-04
 4.9196526e-04
 4.1587950e-04
 3.3108734e-04
 2.4234604e-04
 1.5441287e-04
 7.2045104e-05
 0.0000000e+00
-5.7970502e-05
-1.0213578e-04
-1.3377054e-04
-1.5414948e-04
-1.6454731e-04
-1.6623875e-04
-1.6049849e-04
-1.4860123e-04
-1.3182169e-04
-1.1143458e-04
-8.8714584e-05
-6.4936425e-05
-4.1374804e-05
-1.9304427e-05
 0.0000000e+00
 1.5533149e-05
 2.7367199e-05
 3.5843707e-05
 4.1304228e-05
 4.4090320e-05
 4.4543538e-05
 4.3005440e-05
 3.9817580e-05
 3.5321516e-05
 2.9858804e-05
 2.3771001e-05
 1.7399663e-05
 1.1086345e-05
 5.1726057e-06
-6.9399103e-18
-4.1620948e-06
-7.3330190e-06
-9.6042923e-06
-1.1067435e-05
-1.1813966e-05
-1.1935405e-05
-1.1523273e-05
-1.0669088e-05
-9.4643717e-06
-8.0006425e-06
-6.3694206e-06
-4.6622256e-06
-2.9705773e-06
-1.3859955e-06
 0.0000000e+00
 1.1152299e-06
 1.9648765e-06
 2.5734624e-06
 2.9655102e-06
 3.1655426e-06
 3.1980822e-06
 3.0876516e-06
 2.8587736e-06
 2.5359708e-06
 2.1437657e-06
 1.7066811e-06
 1.2492396e-06
 7.9596379e-07
 3.7137638e-07
-4.9826314e-19
-2.9882496e-07
-5.2648707e-07
-6.8955717e-07
-7.9460606e-07
-8.4820457e-07
-8.5692353e-07
-8.2733376e-07
-7.6600608e-07
-6.7951132e-07
-5.7442029e-07
-4.5730382e-07
-3.3473274e-07
-2.1327785e-07
-9.9510002e-08
 1.3350921e-19
 8.0069907e-08
 1.4107179e-07
 1.8476629e-07
 2.1291405e-07
 2.2727573e-07
 2.2961197e-07
 2.2168341e-07
 2.0525071e-07
 1.8207451e-07
 1.5391545e-07
 1.2253419e-07
 8.9691366e-08
 5.7147629e-08
 2.6663625e-08
 0.0000000e+00
-2.1454667e-08
-3.7800071e-08
-4.9507977e-08
-5.7050148e-08
-6.0898348e-08
-6.1524342e-08
-5.9399892e-08
-5.4996762e-08
-4.8786718e-08
-4.1241521e-08
-3.2832937e-08
-2.4032729e-08
-1.5312661e-08
-7.1444967e-09
 9.5855298e-21
 5.7487606e-09
 1.0128499e-08
 1.3265622e-08
 1.5286541e-08
 1.6317663e-08
 1.6485398e-08
 1.5916153e-08
 1.4736338e-08
 1.3072362e-08
 1.1050632e-08
 8.7975590e-09
 6.4395504e-09
 4.1030152e-09
 1.9143621e-09
 0.0000000e+00
-1.5403758e-09
-2.7139230e-09
-3.5545128e-09
-4.0960163e-09
-4.3723047e-09
-4.4172490e-09
-4.2647203e-09
-3.9485899e-09
-3.5027287e-09
-2.9610080e-09
-2.3572988e-09
-1.7254723e-09
-1.0993996e-09
-5.1295178e-10
 0.0000000e+00
 4.1274244e-10
 7.2719348e-10
 9.5242884e-10
 1.0975243e-09
 1.1715555e-09
 1.1835983e-09
 1.1427284e-09
 1.0580215e-09
 9.3855334e-10
 7.9339970e-10
 6.3163632e-10
 4.6233891e-10
 2.9458323e-10
 1.3744502e-10
-1.8440533e-22
-1.1059400e-10
-1.9485091e-10
-2.5520254e-10
-2.9408074e-10
-3.1391735e-10
-3.1714421e-10
-3.0619314e-10
-2.8349600e-10
-2.5148461e-10
-2.1259081e-10
-1.6924644e-10
-1.2388334e-10
-7.8933340e-11
-3.6828281e-11
 0.0000000e+00
 2.9633574e-11
 5.2210143e-11
 6.8381314e-11
 7.8798697e-11
 8.4113901e-11
 8.4978534e-11
 8.2044206e-11
 7.5962524e-11
 6.7385098e-11
 5.6963536e-11
 4.5349447e-11
 3.3194441e-11
 2.1150125e-11
 9.8681082e-12
-1.3239707e-23
-7.9402923e-12
-1.3989666e-11
-1.8322718e-11
-2.1114047e-11
-2.2538252e-11
-2.2769930e-11
-2.1983679e-11
-2.0354097e-11
-1.8055783e-11
-1.5263333e-11
-1.2151348e-11
-8.8944235e-12
-5.6671588e-12
-2.6441516e-12
 0.0000000e+00
 2.1275949e-12
 3.7485196e-12
 4.9095575e-12
 5.6574919e-12
 6.0391064e-12
 6.1011843e-12
 5.8905090e-12
 5.4538639e-12
 4.8380324e-12
 4.0897979e-12
 3.2559438e-12
 2.3832536e-12
 1.5185106e-12
 7.0849830e-13
 0.0000000e+00
-5.7008734e-13
-1.0044128e-12
-1.3155120e-12
-1.5159204e-12
-1.6181737e-12
-1.6348074e-12
-1.5783572e-12
-1.4613585e-12
-1.2963469e-12
-1.0958581e-12
-8.7242757e-13
-6.3859093e-13
-4.0688373e-13
-1.8984157e-13
 2.5470402e-25
 1.5275447e-13
 2.6913165e-13
 3.5249045e-13
 4.0618977e-13
 4.3358848e-13
 4.3804550e-13
 4.2291971e-13
 3.9157002e-13
 3.4735532e-13
 2.9363450e-13
 2.3376646e-13
 1.7111009e-13
 1.0902430e-13
 5.0867967e-14
 0.0000000e+00
-4.0930526e-14
-7.2113802e-14
-9.4449836e-14
-1.0883863e-13
-1.1618020e-13
-1.1737455e-13
-1.1332169e-13
-1.0492162e-13
-9.3074353e-14
-7.8679894e-14
-6.2638252e-14
-4.5849435e-14
-2.9213448e-14
-1.3630301e-14
 1.8287409e-26
 1.0967638e-14
 1.9323556e-14
 2.5308888e-14
 2.9164769e-14
 3.1132332e-14
 3.1452712e-14
 3.0367043e-14
 2.8116458e-14
 2.4942093e-14
 2.1085080e-14
 1.6786554e-14
 1.2287649e-14
 7.8294985e-15
 3.6532377e-15
-4.9017798e-27
-2.9400242e-15
-5.1804201e-15
-6.7857163e-15
-7.8204419e-15
-8.3491255e-15
-8.4362960e-15
-8.1464823e-15
-7.5442132e-15
-6.6940175e-15
-5.6604240e-15
-4.5079617e-15
-3.3011593e-15
-2.1045457e-15
-9.8264961e-16
 0.0000000e+00
 7.9245937e-16
 1.3981247e-15
 1.8339774e-15
 2.1169986e-15
 2.2641696e-15
 2.2924717e-15
 2.2188862e-15
 2.0603944e-15
 1.8339774e-15
 1.5566166e-15
 1.2452933e-15
 9.1698870e-16
 5.8868410e-16
 2.7736078e-16
-3.7705999e-28
-2.2981322e-16
-4.1207887e-16
-5.5019322e-16
-6.4755251e-16
-7.0755301e-16
-7.3359096e-16
-7.2906262e-16
-6.9736424e-16
-6.4189209e-16
-5.6604240e-16
-4.7321145e-16
-3.6679548e-16
-2.5019074e-16
-1.2679350e-16
