Patient Number 038E54T Lead Number 1 Time Step .001 Data Points 6001
  -5.9791028e-02
   8.2179617e-02
   7.9835064e-02
  -2.5538505e-03
   5.2437978e-02
  -6.2537389e-02
  -1.3662827e-02
   7.2599895e-02
   5.1028166e-02
   8.0241162e-02
   2.7196998e-02
  -8.1078670e-02
   6.0968451e-02
   7.5788241e-02
   3.1212520e-02
   4.5009159e-02
   4.2458223e-02
  -1.8820396e-02
   2.7151104e-02
  -5.7420669e-02
   3.5981828e-02
  -8.1756030e-02
  -3.8955939e-02
  -7.9252090e-02
  -7.0352877e-02
   5.6485441e-02
   3.4022922e-02
  -3.1939918e-02
   7.8622276e-02
  -8.1299681e-02
  -1.0697072e-02
  -2.0683447e-02
   4.6367197e-02
   5.1550759e-02
  -5.4681437e-02
  -1.7874436e-03
  -9.5022818e-03
   2.5550641e-02
   3.6561380e-02
   4.4475935e-02
  -3.9112741e-02
   3.1381478e-02
   2.7084764e-02
  -5.8918113e-02
  -6.6534435e-02
  -2.8568560e-04
   8.0285087e-02
  -2.7873441e-02
   1.4890307e-02
  -4.8230721e-02
   4.3878767e-02
  -4.2767740e-02
   1.0402799e-03
   3.4764768e-02
   6.8263435e-02
   8.0206062e-02
   8.2452480e-03
  -6.3107014e-02
  -6.1243788e-02
  -4.2346334e-02
   5.9499454e-02
  -4.2909703e-02
   5.4883559e-02
  -4.4788235e-02
   7.4962307e-02
  -2.6197335e-02
  -5.2983571e-02
  -4.3468226e-02
   2.0264882e-02
  -4.6645683e-03
  -2.5904700e-02
   5.7772603e-02
   1.4889668e-02
   8.6832337e-03
   7.2854530e-02
  -3.7398932e-02
   4.4914876e-02
   4.4308712e-02
  -2.0877742e-02
   1.1743693e-02
  -7.3968565e-02
  -7.4793691e-02
   1.3078177e-02
   6.1150973e-02
   9.3291286e-02
  -4.1829479e-02
   4.0518676e-02
   2.9154688e-02
  -4.4336542e-02
   1.9156727e-02
  -4.3931035e-03
   1.1329091e-01
   3.6532483e-02
   8.2382741e-02
   2.7112238e-02
   1.1170911e-01
   6.1107675e-02
   1.3820683e-01
   1.5324253e-01
   1.7263471e-01
   1.2986308e-01
   7.5022727e-02
   1.0967125e-01
   2.3848110e-01
   1.1479477e-01
   2.4139742e-01
   2.0009574e-01
   2.8864001e-01
   1.3663679e-01
   2.0828991e-01
   1.5700977e-01
   3.1336126e-01
   1.5269427e-01
   2.9320761e-01
   3.0601066e-01
   3.1978516e-01
   1.8693003e-01
   2.4539904e-01
   2.2376617e-01
   3.2020096e-01
   2.5712280e-01
   3.4171139e-01
   2.1404095e-01
   2.2735290e-01
   2.0510047e-01
   2.0094665e-01
   3.2598950e-01
   2.7141881e-01
   2.6160709e-01
   1.8549846e-01
   3.0314982e-01
   2.5631449e-01
   2.0207181e-01
   2.2291377e-01
   1.9565274e-01
   1.3065106e-01
   1.5088156e-01
   1.2202019e-01
   1.2390082e-01
   1.2478791e-01
   1.4685235e-01
   7.3756153e-02
   2.1382631e-01
   2.1227319e-01
   1.2420460e-01
   1.1532319e-01
   8.0360941e-02
   1.7026140e-01
   6.9466565e-02
   1.6504337e-02
   1.2574042e-01
   5.0245093e-02
   1.7291549e-02
   3.8820178e-02
  -2.1171146e-02
  -2.1068504e-02
   1.1469529e-01
   1.1175477e-01
   4.0233677e-02
  -5.4375698e-02
  -2.8115384e-02
  -1.1542919e-02
   6.6490115e-02
  -7.7725098e-02
  -7.6001754e-02
  -5.6904271e-02
   2.5940035e-02
   4.0465680e-02
   2.5800878e-02
  -8.5701931e-03
   8.2091629e-03
  -3.5568498e-02
   4.2730705e-02
  -5.4317786e-02
   3.2616594e-02
  -5.5268447e-02
  -2.2966535e-02
   2.1936769e-02
   4.8936117e-02
  -7.3148007e-02
   7.4983672e-02
   4.8147705e-02
  -2.3065772e-03
  -1.1201015e-02
  -9.2931538e-03
  -3.3817192e-02
   1.4858665e-03
   1.8810383e-03
   5.5467327e-02
   5.1486410e-02
   2.5202275e-02
  -2.1198444e-02
   5.4411295e-02
   5.7323326e-03
  -2.6067526e-02
   7.6662843e-02
   6.5650893e-02
   8.7588022e-03
   2.1387824e-02
   1.5200617e-02
  -5.1036963e-02
  -3.4708353e-02
  -5.0776556e-03
  -4.7064853e-02
   6.0126644e-02
  -5.3303312e-02
  -4.7862279e-02
  -5.7504254e-02
  -4.7557984e-02
  -1.1228939e-02
  -3.2987208e-02
   7.3934787e-02
  -1.2187883e-02
  -5.5040526e-02
   7.0704364e-02
   8.3778459e-02
  -1.0675137e-02
  -6.7910250e-02
  -4.2249162e-02
  -1.5940253e-02
   1.6571701e-02
  -4.1524962e-02
   1.7959489e-02
   3.6884612e-02
  -4.8591368e-02
  -6.6810356e-02
  -3.5506492e-02
  -3.1646745e-02
  -1.3242759e-02
   1.3722923e-03
  -7.2381376e-02
  -4.1477727e-02
   5.2566184e-02
  -8.2212263e-02
   7.4890798e-02
   4.0222679e-02
  -1.9892149e-03
   1.3712831e-02
  -4.5878168e-02
  -7.1862291e-03
   8.0969152e-02
   6.7736827e-03
  -9.0498667e-06
  -5.2571672e-02
  -9.5387870e-03
   1.2564613e-02
   2.0682440e-02
  -3.0346178e-02
  -3.6649538e-02
   7.0116297e-02
  -9.7524662e-02
   4.8361889e-02
   5.0972279e-02
   2.7622590e-02
  -9.7776875e-02
  -7.3284435e-02
  -6.5451635e-02
  -1.1314108e-02
  -1.1366873e-01
  -2.0367042e-02
  -1.3787118e-01
  -5.3949354e-02
  -9.4517405e-02
  -5.8169198e-02
  -8.3348075e-02
  -6.4398279e-02
  -8.0233203e-02
  -1.9006011e-01
  -1.3729302e-01
  -2.3297147e-01
  -2.6698163e-01
  -1.4257731e-01
  -1.7989608e-01
  -1.7200620e-01
  -7.9323356e-02
  -1.0481399e-01
  -6.9551918e-02
   1.5269410e-02
   5.7247618e-02
   7.7797878e-02
   7.8928751e-02
   1.6798433e-01
   3.6829658e-01
   3.1239237e-01
   4.9133648e-01
   5.3571012e-01
   7.7779200e-01
   8.2974284e-01
   8.8598236e-01
   9.6565116e-01
   9.6739624e-01
   1.1349778e+00
   1.0638947e+00
   1.0892615e+00
   1.1679807e+00
   1.0738770e+00
   1.1611583e+00
   1.1045532e+00
   1.0155446e+00
   8.2965600e-01
   8.2147187e-01
   6.9174723e-01
   6.6139555e-01
   4.9471838e-01
   4.1364673e-01
   2.4983169e-01
   1.4919353e-01
   1.2840955e-01
  -8.1938666e-02
  -1.4435935e-01
  -1.9823615e-01
  -2.1084553e-01
  -1.7403116e-01
  -2.0892348e-01
  -3.5925492e-01
  -3.1189262e-01
  -2.9330667e-01
  -3.0902931e-01
  -2.5790756e-01
  -2.4905201e-01
  -2.9032582e-01
  -2.4573576e-01
  -2.9631048e-01
  -1.0436795e-01
  -2.2402238e-01
  -2.1236644e-01
  -1.4478109e-01
  -1.5611758e-01
  -8.8500848e-02
  -9.9929265e-02
   1.9768228e-02
   2.5102584e-02
  -1.1721602e-01
   1.0037159e-02
  -6.5518675e-02
  -3.3675217e-02
  -7.8403045e-03
   6.4315160e-02
  -2.4764347e-02
   7.6055452e-02
  -4.1171922e-02
   3.0317876e-02
   2.5847754e-02
   5.1326546e-03
   3.4295167e-02
   2.9180770e-02
  -5.6207729e-02
  -6.4959845e-02
   8.7154409e-02
  -5.7432128e-02
  -8.1621919e-02
   1.0687320e-02
   6.6685347e-02
   2.9543083e-02
  -5.4059639e-02
  -2.2891104e-02
  -6.8584296e-03
   8.4108435e-02
  -6.0002003e-02
   6.2084948e-02
   2.5280231e-02
  -2.1606584e-02
  -5.3973995e-02
  -1.2529180e-02
  -3.1394875e-03
  -6.6252594e-02
   1.5630692e-02
  -4.7815845e-02
  -2.0148962e-02
   1.4491912e-02
  -4.3342097e-02
  -3.6595347e-02
   2.0447581e-02
  -4.0988995e-02
   5.6645827e-02
   8.4287509e-02
   4.0208347e-02
  -2.7263759e-02
   1.4681028e-02
  -6.8495297e-02
   7.0953592e-02
   6.6298930e-02
   5.5490526e-02
  -4.1784070e-02
   1.6477432e-02
  -8.3383626e-02
  -1.3051965e-02
  -3.2704901e-02
  -5.9114919e-02
  -5.6097061e-02
  -1.3466472e-02
  -7.0859731e-02
   1.7205188e-02
  -5.0774971e-03
   3.4218629e-02
   3.4906415e-02
   2.4191626e-02
  -8.1446762e-02
  -7.5299391e-02
  -3.1503298e-02
   5.3898293e-03
   2.6970854e-02
  -1.6132460e-02
   5.5878321e-02
   3.8132022e-02
   8.1840233e-02
   5.4718401e-03
  -3.0534810e-02
  -6.8868972e-02
   1.9376711e-02
   4.8687235e-02
  -1.3367417e-02
  -7.1454530e-02
  -4.0781084e-02
  -6.0481927e-02
  -3.8243044e-02
  -1.0462932e-02
   4.7399370e-03
  -7.4349830e-03
   6.5551142e-02
   3.1524397e-03
   7.7469819e-02
   2.4048140e-02
   7.9927093e-02
  -4.5280330e-02
   3.0756238e-02
  -3.6835654e-02
   3.0002860e-02
   3.4077385e-02
  -7.5441423e-02
  -4.2820995e-02
  -4.8190889e-02
   2.9308629e-02
   6.0141202e-02
  -2.7161529e-02
   4.8987147e-02
   3.0618239e-02
  -8.6142305e-02
   1.7842032e-02
  -1.9773146e-02
   7.2644551e-02
  -8.7113991e-02
  -6.5575033e-03
  -1.3210927e-02
  -6.8251750e-03
   4.7177993e-02
  -3.1001748e-02
   4.9724023e-02
  -5.0019002e-03
  -8.1069754e-02
  -5.6602051e-02
   3.8725605e-02
  -4.6301410e-03
  -6.0645297e-02
  -2.7744410e-02
   1.8753378e-02
  -5.3830526e-02
   4.1636479e-02
  -4.4906175e-02
   7.2894813e-02
  -4.0328775e-02
   4.6364268e-02
  -5.4368959e-02
  -3.7109194e-02
  -7.1403856e-02
   1.3308444e-02
   3.2020723e-02
   8.1365556e-03
  -1.2969972e-02
   2.5224043e-02
   2.6878467e-02
   3.3861696e-02
   2.7712433e-02
   8.3340755e-02
  -4.3628694e-02
   4.5346864e-02
  -3.5462054e-02
  -5.3964833e-02
   3.3238487e-02
   7.8925460e-03
   1.1592233e-02
   4.9380412e-02
   7.0699959e-02
  -5.6428313e-05
   5.7091736e-02
   1.6958775e-02
   9.4311088e-02
   9.5837264e-02
  -1.6327095e-03
   6.4113648e-02
   6.2363172e-02
   5.8814310e-02
   1.2020280e-01
   1.8723361e-02
   3.2230276e-02
   2.0034353e-03
   1.4990742e-01
   1.0331772e-01
   7.9413663e-02
   1.1252892e-01
   1.0150877e-01
   1.2502500e-01
   1.1276380e-01
   1.4980137e-01
   1.2132836e-01
   2.1011564e-01
   8.1372500e-02
   6.8460552e-02
   7.6141468e-02
   7.5189961e-02
   1.4213680e-01
   1.5738436e-01
   1.5076748e-01
   2.2811582e-01
   2.1233454e-01
   2.4569593e-01
   2.8218922e-01
   2.9765474e-01
   1.6981891e-01
   1.6913660e-01
   2.7527399e-01
   1.7896879e-01
   2.6313637e-01
   2.7299901e-01
   3.3966585e-01
   2.8295494e-01
   2.7599428e-01
   3.3353702e-01
   3.5463087e-01
   3.2480176e-01
   3.0350606e-01
   2.7767902e-01
   3.6243426e-01
   3.1426344e-01
   2.8454802e-01
   4.1671900e-01
   3.3518261e-01
   3.7774172e-01
   4.2799483e-01
   3.7771702e-01
   4.5057207e-01
   3.9741277e-01
   4.5402991e-01
   4.6353280e-01
   4.2332479e-01
   3.5470384e-01
   4.1376271e-01
   4.3448217e-01
   4.1158232e-01
   4.0229650e-01
   5.1448217e-01
   4.4876218e-01
   5.3091644e-01
   4.4599729e-01
   5.1329545e-01
   4.4927670e-01
   5.2147582e-01
   5.1444411e-01
   4.5218958e-01
   4.2690838e-01
   5.2991381e-01
   5.5966194e-01
   4.5288775e-01
   5.1400790e-01
   4.7408557e-01
   5.4343921e-01
   5.3135002e-01
   4.2569249e-01
   5.4561265e-01
   5.6614637e-01
   4.8091877e-01
   5.4280700e-01
   4.8807199e-01
   4.0880940e-01
   4.1278704e-01
   4.4465152e-01
   4.9953148e-01
   5.0795670e-01
   4.9643624e-01
   4.0840889e-01
   4.4004862e-01
   3.5609309e-01
   3.5329217e-01
   3.5068577e-01
   4.3819805e-01
   3.9875776e-01
   3.3771413e-01
   3.8312787e-01
   3.1436182e-01
   2.8998514e-01
   4.2054495e-01
   3.6117551e-01
   4.1682260e-01
   3.6724399e-01
   3.3835779e-01
   3.6987782e-01
   3.7168720e-01
   3.8157864e-01
   1.9957622e-01
   3.4121654e-01
   2.8755748e-01
   3.4406000e-01
   2.5383377e-01
   2.3602417e-01
   2.8282433e-01
   1.7327321e-01
   2.1116721e-01
   2.7230087e-01
   2.0623809e-01
   2.4457847e-01
   2.1707375e-01
   1.8181592e-01
   1.1407225e-01
   1.7906126e-01
   6.9063604e-02
   1.5589636e-01
   1.5430575e-01
   1.5862157e-01
   1.7943704e-01
   1.8822461e-01
   1.4388055e-01
   1.0432300e-01
   1.5809631e-01
   9.0886181e-02
  -1.3749269e-02
  -1.7092931e-03
   1.2194017e-01
   5.0057700e-02
   1.0742215e-01
  -9.0465902e-03
   4.5631637e-02
   5.4181536e-02
  -5.5128409e-02
   4.1732404e-02
  -6.8270863e-03
  -6.5965126e-02
   6.6786072e-03
  -4.9396910e-02
  -6.5220885e-02
  -5.1629553e-02
  -6.1729101e-02
  -5.4397326e-02
  -7.9866609e-02
   2.3609612e-02
  -3.8092591e-02
   6.7401379e-03
   3.4081322e-02
  -1.5437057e-04
   6.2519384e-03
  -9.5726638e-03
  -6.5672706e-02
  -1.6839058e-03
   6.1644068e-02
   6.5298943e-02
  -4.0113501e-02
  -5.0911393e-02
   1.1347382e-02
   2.4502654e-02
  -1.4489234e-02
  -5.1345496e-02
   7.8222561e-02
  -7.2982905e-02
  -6.8854963e-02
  -6.2510359e-02
  -5.8246013e-02
   2.1123008e-02
   1.2871936e-02
  -7.8220638e-02
   7.5300698e-02
   3.9931189e-02
   4.1534288e-02
  -7.6242672e-02
   6.2943736e-02
   7.5860166e-02
   8.4590477e-02
   6.2681486e-02
   4.9867166e-02
   2.3360986e-03
  -5.6300282e-02
  -1.7709316e-02
  -6.3926586e-02
  -8.1920758e-02
   7.6687316e-02
  -3.4697922e-02
  -3.5705926e-02
  -2.9174337e-02
  -5.7508825e-03
   2.5879888e-02
  -8.2909403e-02
   5.9759541e-02
   1.0308853e-02
   6.1836474e-02
  -2.6564856e-02
  -9.4253665e-03
  -7.7843159e-02
  -5.6386711e-02
   2.8431172e-02
  -2.9542333e-02
   6.9587634e-02
  -6.6681558e-02
   8.5292423e-02
   6.9820740e-03
   3.6133989e-02
   8.7226222e-02
  -3.7047869e-02
  -1.4926929e-02
  -6.1400010e-03
   4.6094825e-02
   5.5567971e-02
  -6.9813312e-02
  -5.6210436e-02
  -2.4511955e-02
  -7.7412660e-02
   3.8218952e-03
  -2.8665694e-02
  -5.6637917e-02
  -5.0826642e-02
   7.0751966e-02
   3.0628561e-02
  -5.5063983e-03
   7.1970694e-02
  -6.9151459e-02
   4.2879711e-02
   4.1259386e-02
   1.0802861e-02
  -5.5149185e-02
   1.6976018e-02
  -3.4937003e-02
  -6.3893112e-02
  -5.0188394e-02
   6.8968665e-02
  -7.4837195e-02
  -4.4969572e-02
  -7.7927870e-02
  -1.0177077e-02
  -8.4995355e-02
   6.9361526e-02
  -5.2972580e-02
  -7.1009707e-02
  -3.3639518e-02
  -7.6736496e-03
  -6.9560474e-02
   8.6509908e-02
  -2.9321628e-02
  -3.5389326e-02
  -7.6480043e-02
  -3.5232655e-02
  -7.9220679e-02
   9.4791652e-04
   4.5652803e-02
   2.2888754e-02
  -7.1617221e-02
  -7.3193995e-02
   4.8414515e-02
   7.0748680e-02
   5.8975959e-03
  -6.8253400e-02
   5.6896001e-02
  -2.8272995e-02
  -3.5978486e-02
   4.3013714e-02
  -8.5509916e-02
  -7.8854641e-02
   2.9323192e-02
   1.8068614e-02
   4.5582736e-03
   4.0114161e-02
   3.6192676e-02
   4.9136875e-02
  -3.7025581e-02
   3.3621861e-02
   9.8962533e-03
  -1.8070574e-02
  -7.6559422e-02
   4.8927053e-02
  -2.8362730e-02
   1.8836623e-02
   4.2130195e-02
  -6.9011464e-02
  -6.4981852e-02
   8.6511889e-03
  -2.5793884e-03
   6.8188768e-02
   5.2207433e-02
   4.0922983e-02
  -7.8350913e-02
  -7.4587040e-02
  -7.1855450e-02
   5.2101011e-02
   7.7362511e-02
   3.2082250e-02
  -6.4249353e-02
   3.8894386e-02
  -6.8043972e-02
  -6.6797223e-02
   2.4573571e-02
  -2.9894174e-02
   2.6860194e-02
   4.3505827e-02
   1.4526724e-02
   4.1916845e-02
  -4.6307176e-02
   4.1030636e-02
   8.2180620e-02
   6.4077037e-02
  -7.2255864e-02
  -2.3324174e-02
  -2.2841813e-02
   3.2311522e-02
   1.7103548e-02
   5.0531625e-02
  -2.3111771e-02
  -5.1336355e-02
  -7.2180421e-02
   4.7487820e-02
  -5.1398058e-02
  -1.9511125e-02
   9.0420850e-03
  -4.7332894e-02
   2.4787091e-02
  -2.7101926e-03
  -6.0798216e-02
   4.9233779e-02
  -6.9746118e-02
  -3.5962196e-02
  -4.5862550e-02
   5.3912222e-03
  -7.1336577e-02
  -1.6534768e-02
  -6.9005700e-02
  -6.7706852e-02
   4.9669643e-02
  -3.6398075e-02
   1.8080044e-02
   8.1102130e-02
  -1.1790146e-02
   3.4009576e-02
   4.5071876e-02
  -1.1762671e-02
   2.7154623e-02
  -6.8148475e-02
   7.5747482e-02
  -5.4578719e-02
  -4.0832189e-02
   5.2010098e-02
  -2.1647527e-03
   4.6968182e-02
  -1.8160342e-02
  -3.9651698e-02
  -8.0812716e-02
   3.0262491e-02
  -1.2300158e-02
  -8.4277774e-03
   1.9184357e-02
  -7.6941402e-02
  -3.2164849e-02
   4.7625466e-02
   3.4303093e-02
  -6.5428241e-02
  -6.4586652e-02
  -7.1187511e-02
  -8.5949342e-02
  -1.3427408e-02
   2.7167744e-02
   3.8928960e-02
   5.4500789e-03
  -6.8312123e-02
   2.3010362e-02
  -6.5224329e-02
  -6.3961614e-02
  -6.9997514e-02
  -5.9412782e-02
  -5.0233276e-02
  -4.0644051e-02
  -1.4373507e-02
  -9.2570039e-03
  -2.0821919e-02
  -8.9755624e-03
   1.0951604e-01
   8.3088872e-02
   6.4333517e-02
   6.7926514e-03
   1.9211946e-02
   3.5920731e-03
   1.5776197e-01
   1.2999868e-01
   1.1259169e-01
   7.8719105e-02
   6.1909128e-02
   1.5069170e-01
   2.2370804e-01
   9.0147544e-02
   1.1470326e-01
   1.4827807e-01
   1.0110671e-01
   2.1664870e-01
   1.7635407e-01
   2.8631751e-01
   1.9321839e-01
   2.3937294e-01
   1.6534260e-01
   2.1197931e-01
   1.8002383e-01
   2.9027417e-01
   3.1540714e-01
   2.2934114e-01
   2.9190010e-01
   2.2695218e-01
   2.7104880e-01
   3.2585110e-01
   2.8612471e-01
   2.4124042e-01
   2.3453867e-01
   2.6032124e-01
   2.5349161e-01
   2.3998305e-01
   2.7168428e-01
   2.9985570e-01
   2.3968658e-01
   2.3516340e-01
   1.7599153e-01
   1.5195191e-01
   1.9146005e-01
   1.8873362e-01
   2.3963891e-01
   2.8449472e-01
   2.7239168e-01
   1.8044569e-01
   1.3377974e-01
   2.1628450e-01
   2.0658634e-01
   1.9442437e-01
   1.8605530e-01
   6.5781882e-02
   1.5750590e-01
   1.1078419e-01
   5.8435061e-02
   3.0289327e-02
   1.4880581e-01
   2.7646950e-02
   1.8049213e-02
   9.8486348e-02
   1.3127222e-01
   5.8491560e-02
   8.4697904e-02
  -1.7293513e-02
   1.1668721e-01
   3.9239587e-02
   5.8486931e-02
  -5.8430000e-02
   7.2196269e-02
   5.7516314e-02
  -5.5926741e-02
   1.1273637e-02
  -2.6614673e-02
   9.0114657e-03
  -1.7758454e-02
  -1.4827242e-02
  -5.5752765e-02
  -4.2716814e-02
  -8.3728838e-02
   7.3986472e-02
   2.6840612e-02
   7.5547308e-02
  -5.8760835e-02
   7.3536214e-02
   5.1456107e-02
   1.3515349e-02
  -1.0471584e-02
  -4.2327913e-02
   4.3997399e-02
  -4.7382448e-02
  -7.6106009e-02
   4.6683752e-02
   2.9897038e-02
   3.7582561e-02
   2.4808082e-02
  -1.4136596e-02
  -1.9076218e-02
   5.5207546e-02
  -3.1882572e-02
   5.4928081e-02
   5.0480908e-02
   6.1515843e-02
   9.8432253e-04
   2.3690548e-02
   7.8739692e-02
  -9.7855396e-03
  -7.6833914e-02
   6.4045535e-02
   2.2909489e-02
  -2.5308488e-02
   8.6791681e-02
  -4.8167931e-02
   2.6622531e-02
   1.8334516e-02
  -1.9690330e-02
  -6.2484856e-02
  -8.2925677e-02
  -1.3776167e-02
  -5.5165566e-02
   3.9427135e-02
  -2.2638564e-02
   5.9646638e-02
   4.0903531e-02
   1.2403248e-02
  -5.6430801e-02
   7.9872972e-02
  -4.0981813e-02
   7.4144562e-02
  -4.8237974e-02
  -2.2079552e-02
  -7.2034814e-02
   2.4468553e-02
  -5.5773873e-02
  -7.9447725e-02
   3.8972785e-02
  -2.6641964e-02
   2.8048516e-02
  -2.0280026e-02
   2.2238520e-02
  -8.3534293e-02
   7.1697837e-02
   5.2486558e-02
   4.2932346e-02
   5.4678891e-02
  -2.0378218e-02
   2.0480472e-02
   1.3183667e-02
   5.2479292e-03
  -3.9179569e-02
  -4.5296925e-02
  -1.2145322e-02
  -5.3249509e-02
   4.5566031e-02
   7.5788384e-02
  -9.2677506e-02
  -5.8719624e-03
  -8.5608705e-02
   3.7654228e-02
   6.8619376e-02
  -9.4524175e-02
   5.5532136e-02
  -1.0824066e-01
   4.4037371e-03
   1.7848902e-02
  -3.0738557e-02
   2.4595321e-02
   1.9478225e-02
  -3.7007512e-02
  -1.3243894e-01
  -1.3008031e-01
  -1.4900770e-01
  -1.8691200e-01
  -1.8953978e-01
  -1.1456547e-01
  -7.1721998e-02
  -1.8651640e-01
  -1.8760684e-01
  -9.5618061e-02
  -1.0718851e-01
  -1.5435254e-01
  -9.4627776e-02
  -1.2190323e-01
  -1.7851721e-01
  -9.5643256e-02
  -1.3477642e-01
  -8.3210569e-02
   3.5364549e-02
   6.9262892e-02
   1.1886158e-01
   2.3132371e-01
   3.4454832e-01
   4.0928740e-01
   5.0214453e-01
   6.0829394e-01
   6.9626411e-01
   7.1970817e-01
   9.2424353e-01
   1.0573437e+00
   1.0188973e+00
   1.1854959e+00
   1.1169853e+00
   1.2316022e+00
   1.1562884e+00
   1.1291818e+00
   1.0563076e+00
   9.8372806e-01
   9.4333076e-01
   9.3028462e-01
   8.4299795e-01
   7.2234113e-01
   4.9319677e-01
   5.2863535e-01
   4.3495184e-01
   3.0521674e-01
   8.1134691e-02
   5.0327645e-02
   2.6483829e-02
  -4.0220137e-02
  -1.8934950e-01
  -2.3212997e-01
  -2.0168357e-01
  -2.6583054e-01
  -2.6089540e-01
  -3.4032462e-01
  -3.5438388e-01
  -2.3693438e-01
  -2.3868747e-01
  -1.9552706e-01
  -3.2247436e-01
  -2.8929261e-01
  -2.8170999e-01
  -1.9068755e-01
  -2.1946857e-01
  -7.4465454e-02
  -1.9251097e-01
  -1.8300237e-01
  -7.6694547e-02
  -2.4314186e-02
  -9.1940908e-02
  -1.0435929e-01
  -6.7223170e-02
  -8.2117267e-02
  -2.3427065e-02
   5.0763402e-02
   6.3139874e-03
  -8.2584137e-02
  -2.9460035e-02
  -8.6077300e-02
  -6.2759649e-03
  -1.6723532e-02
   8.3688964e-02
   5.2715159e-02
  -2.8056489e-03
   6.8982412e-02
  -6.3295238e-02
  -1.9208442e-02
   7.4629218e-02
   7.2906948e-02
   3.7296430e-02
   2.0665257e-02
  -2.7366636e-02
   7.6143452e-02
  -6.5525709e-02
   4.0267122e-02
   2.5579354e-02
   5.8178331e-02
  -1.7762974e-02
   4.3626452e-02
   5.8539558e-02
  -3.1003741e-02
   9.1264462e-03
   8.3670320e-02
   8.6107491e-03
  -2.9613125e-02
   2.0863318e-02
  -2.4337036e-02
   4.4794262e-02
  -1.5035512e-02
  -1.3367744e-03
   3.4008011e-02
   8.2553518e-02
  -3.0079151e-02
   5.8990570e-02
   4.1749183e-02
   7.9312485e-02
  -8.1740351e-02
  -2.4994969e-02
   2.8404239e-02
  -3.8156383e-02
  -4.7083205e-02
   3.6869379e-02
   2.1754168e-02
   1.5822989e-02
   2.8017282e-02
  -7.9010527e-02
  -2.6406709e-02
  -8.4973945e-03
  -4.5245760e-02
   3.7553311e-02
   6.2200114e-02
  -3.8155311e-02
   4.0348406e-02
  -6.3257466e-02
   5.8801899e-02
  -6.3110982e-02
   1.5404005e-02
  -2.3373038e-02
   5.3569419e-02
   6.6023862e-04
  -1.8171406e-03
   6.5844019e-02
  -2.5645845e-02
  -8.8286717e-03
   8.0946294e-02
  -7.9928536e-02
   8.2592714e-02
  -5.4273809e-02
   2.9184218e-02
   1.5094950e-02
   3.0579881e-02
  -2.4269720e-02
   2.1004222e-02
   5.4336279e-02
  -8.3952067e-02
  -7.2668169e-02
   8.2914615e-02
   2.6430169e-02
  -4.6933940e-02
  -1.6853342e-02
  -6.6006557e-02
  -4.0437529e-02
  -4.2287323e-02
  -2.9396299e-02
  -6.0730374e-02
  -2.6542422e-02
  -6.6069784e-02
   6.7084648e-02
  -7.0851165e-02
   7.5097995e-02
  -1.7634143e-02
  -7.9037283e-02
  -2.7526315e-02
   4.1206770e-02
   5.1460345e-02
   7.8419170e-03
   3.2520203e-02
   6.8740078e-02
  -7.7746710e-02
  -3.4286613e-02
  -7.9248569e-02
  -5.3178893e-02
   3.8447554e-02
   3.8724774e-02
   6.5975052e-02
   1.4395269e-02
  -7.4971395e-02
   7.3823884e-02
   5.2453978e-02
  -3.7380100e-02
   7.6249104e-03
   8.4656474e-02
   3.7663861e-02
   5.9194261e-02
  -1.1654708e-02
  -5.1298059e-03
   1.0602383e-02
  -4.0323544e-02
   4.3486095e-02
   6.7892188e-04
   2.5637372e-02
  -3.3573389e-02
  -6.3089517e-02
  -4.2656986e-03
  -2.4018736e-02
   5.0313248e-02
   4.8948059e-02
   2.9427288e-02
  -6.4001221e-02
  -8.2450695e-02
   1.3049982e-02
  -3.0782975e-02
   8.2334118e-02
   9.1180202e-02
  -2.8462481e-02
   6.3132247e-02
   8.1672925e-02
   3.1531066e-02
   8.3660843e-02
   9.6288839e-02
   2.9684477e-02
   6.3383191e-02
   3.9504302e-02
  -5.3999510e-02
   2.2262705e-02
   6.0148711e-02
   4.1402672e-02
   1.8601960e-02
   1.2063683e-01
   1.0554632e-01
   1.1266080e-01
   3.3340654e-02
   7.6072822e-02
   1.2905885e-01
   1.4420239e-01
   1.0251892e-01
   2.6694373e-02
   1.0986693e-01
   1.3467362e-02
   7.7411721e-02
   1.2845125e-01
   1.8084151e-01
   1.6550120e-01
   1.1470166e-01
   1.6873611e-01
   1.1601400e-01
   2.1968799e-01
   2.2951502e-01
   2.1499108e-01
   1.3939577e-01
   1.5849657e-01
   1.2996399e-01
   2.3176880e-01
   2.5685493e-01
   2.7044647e-01
   2.1677830e-01
   2.3236534e-01
   1.6228334e-01
   3.0200197e-01
   2.3233723e-01
   1.9850156e-01
   3.2849105e-01
   3.1355531e-01
   3.4339358e-01
   2.4804586e-01
   3.2485045e-01
   3.3228820e-01
   2.4663218e-01
   3.0511502e-01
   2.9085836e-01
   3.7663704e-01
   3.0957241e-01
   4.2498821e-01
   4.2113047e-01
   3.5299533e-01
   3.7973379e-01
   4.2181883e-01
   4.5359086e-01
   4.2144463e-01
   4.2235135e-01
   3.8542174e-01
   4.1439043e-01
   4.6523512e-01
   5.0052865e-01
   4.7716803e-01
   3.5923535e-01
   4.7822121e-01
   4.4096180e-01
   4.4434154e-01
   3.9142314e-01
   5.1595286e-01
   4.3261451e-01
   4.2068382e-01
   4.3883301e-01
   4.4559212e-01
   4.7572969e-01
   4.8071312e-01
   4.5540744e-01
   4.5871060e-01
   4.8188358e-01
   5.0870956e-01
   5.6174332e-01
   5.2292872e-01
   4.6735093e-01
   5.4315469e-01
   4.2054450e-01
   4.0704431e-01
   4.0979706e-01
   4.2190656e-01
   4.4770352e-01
   4.4107555e-01
   3.8742485e-01
   4.7606863e-01
   3.9453993e-01
   3.9917089e-01
   4.7900119e-01
   5.1384812e-01
   5.2861332e-01
   4.5247051e-01
   5.2086495e-01
   4.3704996e-01
   4.2379951e-01
   3.8463201e-01
   3.9477621e-01
   3.9816913e-01
   3.1699021e-01
   4.5171090e-01
   2.9987196e-01
   3.5655598e-01
   4.1633931e-01
   3.3218259e-01
   3.6161612e-01
   3.8854423e-01
   3.9134822e-01
   3.9008502e-01
   2.5150172e-01
   2.5404122e-01
   3.5627928e-01
   2.9370378e-01
   2.6857059e-01
   2.7819994e-01
   3.0478071e-01
   2.4516881e-01
   1.7817337e-01
   2.1274842e-01
   1.9891108e-01
   2.8368679e-01
   2.1416521e-01
   2.1842095e-01
   2.1384735e-01
   1.4006331e-01
   1.6126704e-01
   1.5990058e-01
   8.1813760e-02
   1.4473685e-01
   1.6021850e-01
   1.0565693e-01
   1.6992290e-01
   1.4440712e-01
   7.2457221e-02
   8.2104106e-02
   6.3460268e-02
   1.2502011e-01
   1.1151076e-01
   5.2324420e-02
   9.2435012e-02
   1.3054763e-01
   9.6835539e-02
   7.7599014e-02
  -3.1721962e-02
   1.2278591e-02
   4.2474693e-02
   1.4606538e-02
  -6.1324128e-02
  -3.4679287e-02
   6.6859436e-02
  -8.0282967e-02
   6.4114828e-02
  -7.3881801e-02
   2.9519908e-02
  -6.3096441e-05
  -4.9246743e-02
   1.2506254e-02
  -6.5977109e-02
   2.9890759e-02
   1.7390624e-02
  -7.7539884e-02
  -7.7475819e-02
  -6.0683814e-02
  -8.3888573e-02
  -1.1320294e-02
   5.8015836e-02
   2.0499846e-02
   3.5151998e-03
   6.3542308e-02
  -7.0254013e-02
   7.1258156e-02
  -6.8452045e-02
   2.9681439e-03
  -6.2315664e-02
   1.0367883e-02
  -8.6515260e-02
   4.6570677e-02
   6.0895092e-02
   7.2789498e-02
   8.5039270e-02
   8.9639357e-04
  -3.9916642e-02
  -6.9720938e-02
   1.3706413e-03
   1.4949922e-02
   4.5907974e-02
  -7.2827233e-02
   2.8219543e-02
   2.9650453e-03
  -5.7444885e-02
   7.6585360e-02
   1.5801077e-02
  -1.0366966e-02
   7.7172303e-02
   2.7227230e-02
  -8.3917208e-03
   5.9321361e-02
   5.6970422e-03
   9.4102983e-03
   3.1444844e-02
  -2.3192627e-02
  -4.5527681e-02
   1.3782409e-02
   6.4069486e-02
  -1.6279574e-02
  -6.7649018e-02
  -9.8062015e-03
  -3.4893798e-02
  -1.7220814e-02
   5.8215279e-02
  -1.6829327e-02
  -1.9178576e-02
  -2.4369810e-02
  -6.2822207e-02
  -4.1888464e-02
  -7.2154479e-02
  -1.2329343e-02
  -4.2385707e-02
  -3.5352903e-02
  -1.3121976e-02
  -6.6497836e-02
  -8.6146310e-04
   3.6044894e-02
  -4.4779782e-02
   4.9781788e-02
  -7.4376737e-02
  -1.8531137e-02
  -8.6722284e-02
  -4.8778194e-02
  -8.7087882e-02
  -5.4278554e-02
  -6.2433010e-02
  -4.0500888e-02
  -5.6773599e-02
  -6.3102730e-02
   1.7268394e-02
   7.0036742e-02
   7.6728889e-02
  -4.8689558e-02
  -3.0260977e-03
  -2.1652179e-02
   4.1527079e-03
  -4.1060299e-02
  -7.5377779e-02
  -1.1119202e-02
  -5.6955044e-02
  -8.2755916e-02
   7.9400467e-02
  -1.2119930e-02
   8.0601974e-02
   4.5825441e-02
  -8.6031703e-02
   3.1440148e-02
   3.5965180e-02
   2.5343840e-02
   9.1348681e-03
  -4.9226673e-02
   4.7563312e-02
  -4.7494414e-02
  -2.2550894e-02
   6.8267900e-02
   6.2234099e-02
  -1.7038029e-02
  -3.1779322e-02
   1.8971005e-02
   7.1632392e-02
   7.1440817e-02
   1.5995132e-02
  -2.9238055e-02
   6.1655502e-02
  -1.0059056e-02
   7.0612597e-02
  -8.1520880e-02
   5.6626366e-03
   3.7806932e-02
  -5.6003519e-02
  -2.8546255e-02
  -5.4534688e-02
  -3.1096856e-02
  -1.6789503e-02
   8.4811329e-03
  -7.8803780e-02
   9.2086124e-03
  -3.9324684e-02
  -4.5141551e-02
  -4.4854557e-02
  -6.0394135e-02
   7.9703989e-02
   7.6079546e-02
   5.5657102e-02
   3.9861366e-02
  -5.6612998e-02
  -2.4383416e-02
  -5.4346607e-02
  -8.7105724e-02
  -3.2058660e-02
   3.4859114e-02
   2.1873312e-02
   7.5199477e-03
  -1.0645933e-02
  -3.7121576e-02
   2.8972981e-04
   4.5673810e-02
   4.5824318e-02
   1.3281642e-02
   4.3249361e-02
   2.5414691e-02
  -6.5797176e-02
   7.6799831e-04
  -2.6672757e-02
  -7.1223250e-02
  -6.1496047e-02
  -5.2708625e-02
   3.0083552e-02
  -1.1960202e-02
   3.3948755e-02
  -4.2472712e-02
  -8.5610847e-02
   5.6375927e-03
  -3.8524781e-02
   7.7925172e-02
   7.0977188e-02
  -1.8740492e-02
  -8.2974531e-02
   2.9938008e-02
   5.8880108e-02
   8.2337982e-02
  -7.7372810e-02
  -8.6749526e-03
   1.4401789e-02
   3.2592562e-02
   3.8319542e-02
   2.6201617e-02
   3.9626088e-02
  -2.2029982e-02
   1.4246679e-02
  -6.7037224e-02
  -7.7246819e-02
   8.3781401e-02
  -3.7576233e-02
   1.6585362e-02
   8.0707181e-02
  -5.4872542e-02
  -5.3604457e-02
  -2.7653690e-02
   7.5596960e-02
  -1.9092728e-02
  -3.9603166e-02
  -6.0780481e-02
  -1.7967883e-02
  -2.1877216e-02
  -6.4418439e-02
  -1.1343839e-02
  -7.1334056e-02
   2.0017306e-02
  -8.5397721e-02
   1.2793461e-02
   5.0595525e-02
  -4.6212900e-02
  -9.0773174e-03
   1.2112020e-02
  -7.6592466e-02
  -6.4807190e-04
   2.4852509e-02
  -4.8675366e-02
   5.8860167e-02
   8.2263868e-02
   6.0487097e-02
   1.0476850e-03
  -3.8614952e-02
   4.3066765e-02
  -4.5939847e-02
   7.9866207e-02
   2.1001010e-02
   1.7508778e-02
  -5.7173076e-02
  -7.1537749e-02
  -4.2738562e-02
   6.2617172e-02
   7.1784640e-02
   3.4862045e-02
   3.9323595e-02
  -4.7269994e-02
   1.3381215e-02
   5.7344986e-02
  -9.0918326e-03
   9.7696149e-02
  -5.4098507e-02
  -8.4690675e-03
   3.0492343e-02
  -4.2231310e-02
   8.0311882e-02
   5.7476330e-02
   5.9727120e-02
   1.1952483e-01
   1.3215009e-01
   1.2787312e-01
   5.3688186e-02
   8.5553988e-02
   1.4654657e-01
   4.3170150e-02
   5.2049310e-02
   8.9114784e-02
   1.4280242e-01
   2.3023906e-01
   1.9374367e-01
   1.3344510e-01
   1.3908216e-01
   2.4568290e-01
   2.6528599e-01
   2.2632179e-01
   1.6758032e-01
   1.4646872e-01
   2.8476957e-01
   2.4749441e-01
   3.1745323e-01
   1.6854248e-01
   2.6538091e-01
   2.1787342e-01
   3.1673187e-01
   2.0893696e-01
   2.5566401e-01
   2.4918645e-01
   3.2612961e-01
   3.0088700e-01
   2.1853872e-01
   2.3683563e-01
   2.0305241e-01
   2.9444256e-01
   2.7389717e-01
   1.9983142e-01
   1.9137013e-01
   2.4332280e-01
   3.1276692e-01
   2.4411132e-01
   1.4653729e-01
   1.4269108e-01
   2.6607319e-01
   1.9620859e-01
   1.7580651e-01
   2.3838048e-01
   1.5540042e-01
   1.7584927e-01
   1.9826161e-01
   2.1727094e-01
   1.1358407e-01
   1.6081511e-01
   2.0872064e-01
   4.3151180e-02
   1.2389616e-01
   8.5361999e-02
   5.8969494e-02
   4.3158339e-02
   1.2198835e-01
   1.5597957e-01
   7.6659713e-03
   1.0469640e-01
  -3.8227986e-03
   1.2918065e-01
   9.0283938e-02
   1.8867710e-02
   6.7066497e-02
   2.2212486e-02
   7.2158970e-02
  -1.0957845e-02
  -6.4124499e-02
   2.2789838e-02
   7.5431101e-02
  -5.2577655e-02
  -1.1910613e-02
   4.3510763e-02
  -8.0472213e-02
   7.7941733e-02
   4.6045273e-02
   1.0271833e-02
  -5.5210507e-02
  -3.5819843e-04
   3.1163772e-03
   8.6309657e-02
   6.1967749e-02
   8.0749600e-02
   3.1248468e-02
  -1.6851552e-02
   7.5960398e-02
  -3.5826138e-03
  -4.6837231e-02
  -1.8110834e-02
   3.5812679e-02
   1.0226164e-02
   4.4815419e-02
   8.6525857e-02
   8.0754396e-02
   6.1237686e-03
   8.1005641e-02
  -6.7123253e-02
  -7.8330585e-02
  -3.4166544e-02
   1.4003900e-02
   5.4073223e-03
   7.0062969e-02
   7.0813207e-03
  -1.1878226e-02
   7.4509360e-03
   3.7093998e-02
  -8.4403095e-02
   5.2549814e-02
  -6.2428597e-02
  -3.7590028e-03
  -4.2463842e-02
  -2.2860518e-02
   2.8249007e-02
  -5.7696213e-02
  -3.8630947e-02
  -5.2699528e-02
  -5.3249658e-02
  -3.0238992e-02
   6.6418401e-02
  -5.0464813e-03
  -1.6769829e-02
  -5.6015807e-02
   8.1888372e-02
  -1.6161005e-02
   6.0157834e-02
   2.0139222e-02
  -2.1547407e-02
   6.5867249e-02
   4.9743779e-02
  -6.1200335e-03
   5.4829791e-02
   6.9580300e-02
  -1.2357073e-02
  -2.8931053e-02
   1.6877484e-02
   7.0199655e-02
   3.5286864e-02
  -2.1400016e-02
   4.1030353e-02
   7.9299970e-02
   7.4764539e-03
   7.0036815e-03
  -3.2985924e-02
  -7.4875307e-02
  -5.5535751e-02
  -7.0976344e-02
  -7.7758727e-03
  -8.9385263e-02
   6.6775975e-02
   1.7326990e-02
  -9.6167190e-02
  -9.2608820e-02
  -6.3009845e-02
  -2.1364262e-02
  -8.0190533e-02
  -1.0260485e-01
   2.0754911e-02
  -4.6675642e-02
   2.4874276e-02
  -3.8761651e-02
  -4.2779438e-02
  -1.1542090e-01
  -1.2134778e-01
  -1.2160618e-01
  -4.2578313e-02
  -1.1441449e-01
  -2.1186714e-02
  -3.1119935e-02
  -2.5939401e-02
  -1.2283843e-01
  -1.8374225e-01
  -1.9631219e-01
  -1.5467575e-01
  -1.2622778e-01
  -2.0681935e-01
  -1.9177010e-01
  -1.6086989e-01
  -1.0702061e-01
  -2.2759958e-01
  -1.1234359e-01
  -1.1042446e-01
  -1.0174800e-01
   1.9600317e-02
  -1.4776372e-02
   8.3394309e-03
   1.5758404e-01
   2.3505422e-01
   2.7075344e-01
   4.4760683e-01
   5.8032382e-01
   6.7769322e-01
   6.2906946e-01
   7.4584110e-01
   8.0271194e-01
   9.8946096e-01
   9.7633563e-01
   1.0870397e+00
   1.2108713e+00
   1.1725054e+00
   1.1413240e+00
   1.0933685e+00
   1.0952869e+00
   1.1287655e+00
   9.1104365e-01
   8.8569439e-01
   8.5592481e-01
   6.0876228e-01
   6.1226350e-01
   5.5234523e-01
   3.2335207e-01
   1.9394709e-01
   1.9335539e-01
   1.4310305e-01
   1.0161050e-02
  -1.0451004e-02
  -1.9473566e-01
  -1.4736984e-01
  -2.5874749e-01
  -2.7611044e-01
  -3.4262165e-01
  -2.3859293e-01
  -2.7618460e-01
  -2.5284019e-01
  -2.3201822e-01
  -3.4697591e-01
  -1.7527849e-01
  -2.3422313e-01
  -1.6714387e-01
  -1.4656880e-01
  -1.0807484e-01
  -2.0358508e-01
  -1.2995518e-01
  -8.2776110e-02
  -1.1227821e-02
  -1.3383541e-02
   9.9528087e-03
  -3.3889790e-02
  -2.4649925e-02
   3.0480717e-02
  -1.0642640e-01
   4.7105911e-02
  -3.2312968e-02
  -9.3961606e-02
   3.2584815e-02
  -6.8577252e-02
  -6.8684289e-02
   1.3703629e-02
  -4.6075010e-02
  -3.2407951e-02
  -1.7450252e-02
  -1.6250027e-02
  -1.9874441e-02
   1.9174692e-02
  -5.8170873e-02
  -5.4468481e-02
  -7.0789960e-02
  -3.0876981e-02
   4.7079712e-02
  -4.6430973e-02
   4.1975022e-02
   3.3671880e-02
   5.6593778e-02
   5.7274719e-02
  -3.6084158e-02
  -3.3289849e-02
   4.0216937e-03
  -3.0508037e-02
   5.7949658e-02
   5.4186779e-02
   9.9536064e-03
  -4.1393591e-02
   3.1532276e-02
  -4.6512151e-02
  -7.6094386e-03
  -2.0158083e-02
   6.7409692e-03
   8.5866221e-02
   4.4569139e-02
   8.3901830e-02
  -4.6314907e-02
   4.9872736e-03
  -7.8332722e-02
   4.4858163e-02
   1.7808727e-02
   6.2372372e-02
   8.5267837e-02
   7.5000873e-02
  -1.5801407e-02
  -8.7255370e-02
   7.1385815e-03
  -5.1039001e-02
  -4.9021507e-02
  -3.0419452e-02
  -7.0559353e-02
   4.3226803e-02
   4.3397119e-02
   7.5613800e-03
  -2.8266954e-02
   5.8035427e-02
   9.1806794e-03
   7.9900755e-02
   6.8600483e-02
  -2.5058773e-02
   8.1031626e-03
  -2.6773966e-02
   2.1445051e-02
   5.1799569e-02
   4.2937134e-02
  -6.5392608e-02
   5.6299665e-02
  -8.2922968e-02
  -1.4943285e-02
   4.0410686e-02
   4.9136342e-02
  -2.3175861e-02
   4.2761274e-02
   6.8501619e-02
  -4.4949171e-02
  -6.4683480e-02
  -4.8011396e-02
  -2.6192069e-02
  -3.7181414e-02
   7.4652231e-02
  -7.8354079e-02
   1.6182395e-02
  -5.8867965e-02
   5.9095800e-02
  -5.8053835e-02
   3.8429347e-04
   8.7197907e-02
  -2.5250249e-02
  -7.9093820e-02
  -5.0003452e-02
  -1.7840354e-02
  -2.9046526e-02
  -4.7219510e-02
   7.6159667e-02
   3.1990257e-02
   8.0698932e-02
  -1.0831744e-02
   7.6895990e-02
  -8.6296152e-02
   1.9262917e-02
   5.2576859e-02
  -4.6629435e-02
   7.5522005e-02
   4.5973578e-02
   5.7007883e-02
   1.2828946e-02
   5.1093536e-02
  -2.9854536e-02
  -4.8291835e-02
  -3.2762973e-02
   1.4760335e-02
   5.7612906e-02
  -3.6591535e-02
  -1.7016927e-02
   6.3226066e-02
   2.0036968e-02
   8.5776123e-02
  -5.1743065e-02
   5.7140523e-02
   3.0710715e-02
  -4.3840954e-02
  -4.2285560e-03
  -1.7624493e-02
   1.7364901e-02
   5.2480291e-02
  -6.8966840e-02
   5.6133450e-02
   5.9563906e-02
  -2.5407575e-02
  -1.2211970e-02
   1.2615135e-02
   3.5070023e-02
   4.3442494e-02
   4.7634309e-02
  -1.5361444e-02
  -6.7459070e-03
   8.6891468e-02
   2.1542990e-02
   7.1671962e-02
  -2.6556817e-02
   3.5861373e-02
   3.2030601e-02
   9.9735498e-02
  -5.1213812e-02
   2.3587121e-02
   2.9870205e-02
  -4.2769311e-02
   1.0226691e-01
   1.0172584e-01
   2.7045766e-02
   9.0097220e-02
  -1.7088553e-02
   6.8923455e-02
   9.8977131e-03
   4.6109944e-02
   1.1987263e-01
   1.0948265e-02
   3.4246609e-02
   7.0182730e-02
   4.9577117e-02
   1.3512458e-01
   1.7332996e-01
   3.4159474e-02
   5.3351317e-02
   1.4041658e-01
   8.9453616e-02
   2.0012309e-01
   2.0637872e-01
   1.5559399e-01
   2.0018407e-01
   1.2716590e-01
   1.7443908e-01
   2.4353687e-01
   1.7678654e-01
   2.4991816e-01
   2.2057853e-01
   1.8721265e-01
   2.2247900e-01
   2.7429303e-01
   1.6249040e-01
   2.0532781e-01
   3.1814857e-01
   2.2394766e-01
   2.7764111e-01
   3.2878742e-01
   3.5420852e-01
   3.0334690e-01
   2.1722125e-01
   2.1359159e-01
   3.2422227e-01
   3.2422542e-01
   4.0197289e-01
   3.7307740e-01
   3.6718019e-01
   3.5147120e-01
   3.1387034e-01
   4.4477797e-01
   3.7922083e-01
   2.9807108e-01
   4.2208239e-01
   3.9864303e-01
   3.2529351e-01
   4.7741203e-01
   3.8614822e-01
   3.7479772e-01
   3.6048385e-01
   4.0038143e-01
   3.9117614e-01
   4.6984327e-01
   3.7193854e-01
   4.1248358e-01
   4.1709927e-01
   5.2467097e-01
   4.5127841e-01
   5.0789028e-01
   4.8303865e-01
   5.1576673e-01
   3.9988071e-01
   5.5117161e-01
   5.3077544e-01
   3.9512940e-01
   4.7059783e-01
   4.4875383e-01
   5.0393772e-01
   4.3590214e-01
   4.9805031e-01
   5.0281419e-01
   5.0264189e-01
   4.7539396e-01
   4.0267100e-01
   4.8481248e-01
   4.6448692e-01
   4.0995308e-01
   4.6869308e-01
   4.6412266e-01
   4.7803064e-01
   5.1853276e-01
   4.9597445e-01
   5.2110349e-01
   3.7289932e-01
   3.9684795e-01
   4.3305228e-01
   5.1417372e-01
   4.7835062e-01
   4.1269586e-01
   3.8511156e-01
   3.3000481e-01
   4.4166929e-01
   3.9308653e-01
   3.3159797e-01
   3.6318581e-01
   3.0984338e-01
   4.0325343e-01
   3.2761011e-01
   4.1895464e-01
   2.4858384e-01
   3.8136303e-01
   3.3690658e-01
   3.1226630e-01
   3.2248315e-01
   3.2637632e-01
   2.0658554e-01
   3.3383574e-01
   1.7369306e-01
   2.1307907e-01
   1.8370354e-01
   3.0464377e-01
   1.4539135e-01
   2.2566131e-01
   2.2625072e-01
   2.1961615e-01
   2.4797394e-01
   9.7855990e-02
   2.2213242e-01
   1.6335073e-01
   1.8393944e-01
   9.1577267e-02
   1.4145798e-01
   1.6156612e-01
   1.9820717e-01
   1.0151540e-01
   3.1598023e-02
   1.9598310e-02
   1.1270594e-01
   1.3502175e-01
   1.1028774e-01
   4.3586112e-02
   1.4252759e-01
   6.2125835e-02
   1.3204937e-01
  -2.7262994e-02
  -9.4610109e-03
   8.4528107e-02
   1.0382962e-01
   7.5941820e-02
  -1.4005863e-02
  -4.3598182e-02
   7.3455615e-02
   5.8244157e-02
  -3.5719695e-02
  -4.6932417e-02
  -3.1454716e-02
   5.7551378e-02
   5.6162677e-02
   1.2343346e-02
   1.2543609e-02
  -3.7367629e-02
   3.4774693e-02
   5.1735525e-02
  -1.0200303e-02
  -9.3923677e-03
  -5.9963736e-03
  -3.8586387e-02
   3.0625792e-02
   7.0491936e-02
   7.1340878e-02
   4.3168002e-02
  -4.1821876e-02
   3.3116456e-02
  -6.4293411e-02
  -6.5748050e-02
  -5.3977635e-02
  -6.1865803e-02
   1.4851167e-02
  -7.4503848e-02
   5.6287828e-02
   3.8925546e-02
   7.4367589e-02
  -1.2855216e-03
   2.7047201e-02
   6.8127263e-02
   6.7277211e-03
  -3.8033512e-02
   8.3116461e-02
  -8.0954012e-02
  -3.0342910e-02
   8.2602369e-02
  -2.3569353e-02
  -3.3328202e-02
  -6.6200070e-02
   7.2605165e-02
  -6.3656441e-02
  -2.9317253e-02
   6.9411914e-02
  -6.1333925e-05
   2.0132786e-02
   1.4517510e-02
   3.4621083e-02
  -8.2192693e-02
   4.8691538e-03
  -8.1714119e-02
   5.7128864e-02
  -2.7943209e-02
   6.0546135e-02
  -4.4343871e-02
   1.4230817e-02
   7.6431513e-02
  -7.8969905e-02
  -7.7888881e-02
  -8.3714473e-02
   3.1691593e-02
   1.7223500e-02
  -6.7401935e-02
   5.1733326e-02
   2.0580248e-02
  -7.5053612e-02
  -7.5216813e-02
  -6.3564030e-02
   5.0449091e-02
  -7.1179457e-02
  -4.5775973e-02
  -4.4766765e-02
  -6.9009897e-02
   6.2579143e-02
   3.4611625e-02
   4.0818389e-02
   2.6287163e-02
   2.8413289e-03
  -3.0317840e-02
   2.8250977e-02
  -6.6784539e-02
  -6.1501645e-02
  -8.3863497e-02
   8.1079265e-02
   8.2141220e-02
  -6.5685240e-02
  -5.6911870e-03
   2.7363474e-02
  -3.6639894e-02
   4.4449733e-02
   1.0149155e-02
  -1.2609579e-02
  -4.0654902e-02
   4.4309931e-02
   6.9568458e-02
   3.9893182e-02
  -1.6270254e-02
   7.6543095e-02
  -4.2709704e-02
   5.7912967e-03
   7.9413843e-02
  -4.0558248e-02
  -4.3642723e-02
   7.4684487e-02
  -7.5338464e-02
  -3.5030710e-02
   1.5993233e-02
  -5.1812870e-02
   2.3729283e-02
   5.2104398e-02
   2.9705477e-04
   2.6336323e-02
   5.1682619e-02
  -4.6560939e-02
   1.7609504e-02
  -6.7675695e-02
   2.7531560e-03
   5.8997120e-02
   7.3482577e-02
  -3.0945668e-04
  -3.8835770e-02
   2.6634561e-02
   7.2872890e-02
   1.7182638e-03
   8.2808059e-02
  -5.2864178e-02
  -6.7898766e-02
  -3.5388020e-02
  -1.8088431e-02
  -1.3838435e-02
  -3.2922058e-02
   3.3850833e-02
  -7.1271422e-02
  -1.7098264e-02
  -3.5767576e-02
  -3.3791467e-02
  -6.8880860e-02
   1.6385115e-02
  -3.7942294e-02
  -6.0208648e-02
  -8.7199977e-02
  -3.7790732e-02
   8.8731031e-03
   6.4770650e-02
  -7.9936284e-02
   7.0676600e-02
  -6.4442995e-02
   5.8279086e-02
   5.2470792e-02
   7.2974400e-02
  -6.3337662e-02
   8.2640462e-04
  -1.6597101e-02
  -5.7004093e-02
   1.3129314e-02
   1.8548838e-02
  -4.9866340e-02
   3.4807697e-03
   8.5426518e-02
  -1.7611152e-03
   3.4030709e-02
  -1.5468406e-02
  -8.1241938e-02
  -3.6177825e-02
   5.2640771e-02
  -2.6805357e-02
  -7.2765537e-02
   1.9395056e-03
  -2.3254882e-02
   4.1820306e-02
   4.3203748e-03
   5.3178481e-02
   5.5342199e-02
  -5.4227595e-02
  -6.5714412e-02
   5.6055615e-02
   2.4081061e-02
  -8.4499999e-02
   6.9145557e-02
   2.6849462e-03
   7.7748661e-03
   1.8588003e-02
   4.5479977e-02
   6.2054224e-02
  -2.0454683e-02
  -7.2532712e-02
   4.0841294e-02
  -2.9339703e-02
   5.9330461e-02
  -2.2400959e-02
   5.7316233e-02
  -5.6489552e-02
  -6.4696947e-02
   6.6339070e-02
  -7.9617462e-02
   3.2606917e-02
   4.0823762e-02
  -1.0971577e-02
  -2.0983730e-02
   8.3762579e-02
  -1.7638779e-02
  -1.0445159e-02
  -5.9931639e-02
  -3.0379633e-02
  -3.2470365e-02
   6.8891651e-02
  -4.4177168e-02
  -3.3061123e-02
  -1.5914223e-02
   3.6324942e-02
  -6.2231567e-02
   6.4843972e-02
  -7.2793486e-02
  -6.6817213e-03
  -8.2008165e-02
   4.4216409e-02
   3.4933451e-02
  -4.9854726e-02
   3.1416755e-02
   1.0005021e-02
   6.1239057e-02
   1.0227292e-02
   7.0161735e-02
  -1.4054623e-02
  -2.4775046e-02
  -1.9231098e-03
  -4.2616331e-02
   7.4945829e-02
  -5.8052575e-03
  -4.2957609e-02
  -1.2011323e-02
   3.5267816e-02
  -1.6956135e-02
  -5.2460267e-02
   6.9912132e-02
   2.7104060e-02
  -4.5769372e-03
  -2.5800481e-02
  -2.0572057e-02
   3.8382452e-02
   2.9273608e-02
   8.9738915e-02
  -2.0412381e-02
   1.2255484e-01
   1.0091249e-01
   1.3948455e-02
   1.4808777e-01
   4.1482033e-02
   1.2124477e-01
   1.1881695e-01
   6.1231761e-02
   4.2972195e-02
   1.8590945e-01
   1.9393985e-01
   1.4321634e-01
   8.8906286e-02
   1.9047400e-01
   1.2759773e-01
   2.3332228e-01
   2.0798825e-01
   1.6717762e-01
   2.9113062e-01
   2.7078851e-01
   3.0028718e-01
   1.6389922e-01
   1.8993453e-01
   2.9200000e-01
   2.8975231e-01
   3.0787127e-01
   2.6323239e-01
   2.5268951e-01
   2.8722534e-01
   3.3122845e-01
   2.9982630e-01
   2.7371988e-01
   2.3346714e-01
   3.0261912e-01
   2.4382571e-01
   2.7331983e-01
   3.2523216e-01
   3.1278923e-01
   3.1714219e-01
   3.1816311e-01
   2.9008444e-01
   1.4102212e-01
   1.3382473e-01
   1.4075968e-01
   1.6291582e-01
   1.1296633e-01
   1.7454293e-01
   1.5134518e-01
   1.7742164e-01
   2.3572191e-01
   1.1721196e-01
   1.1522475e-01
   1.9737601e-01
   9.7942727e-02
   5.4004966e-02
   1.1006193e-01
   1.6268292e-01
   7.2097687e-02
   1.1857351e-01
   9.9135907e-02
   6.0836283e-02
   5.7792901e-02
   1.3413222e-01
  -2.3433821e-02
   4.7515243e-03
   2.8245886e-02
   4.7392570e-02
   9.3046250e-02
   1.7104024e-02
   7.2713884e-03
   5.7091276e-02
   4.7962046e-03
   6.9911280e-02
  -2.0480073e-03
   5.6898659e-04
  -2.2949848e-03
  -4.7242868e-02
  -7.2375014e-02
  -7.5547852e-02
   6.7824709e-02
  -4.6596927e-02
   6.3145468e-02
   3.6975299e-02
   6.5104333e-02
   7.6488290e-02
  -6.2921061e-02
  -1.8528218e-02
   8.3920687e-02
   2.5285381e-02
   6.9225040e-02
  -3.1031043e-03
  -8.4853926e-02
   2.1458595e-02
  -4.6958817e-02
   4.7907929e-03
   3.9290346e-02
   1.8758020e-02
   1.5431432e-02
  -1.1624274e-02
  -4.4675088e-02
  -1.2405653e-02
  -8.5537711e-02
   1.9003490e-02
   7.9976207e-02
  -7.0647174e-02
  -8.1099820e-02
   6.7448237e-02
  -4.4191629e-02
  -8.5758164e-02
   5.4994527e-02
  -6.2779583e-02
   6.6336076e-02
  -7.0659352e-02
  -2.5747430e-02
   1.6314034e-02
   1.4875270e-02
   2.9282266e-02
   2.5849975e-02
  -1.1635760e-02
  -6.2908928e-02
   4.3994450e-02
  -4.5091772e-02
   2.6274711e-02
   6.2408232e-02
  -7.2581385e-02
   8.2440930e-02
  -8.1821151e-02
   5.8571697e-02
   5.8625622e-02
  -7.8608385e-02
   8.0131087e-03
   7.7390749e-02
  -3.1176158e-02
   5.3518298e-02
   1.7707265e-02
   5.0576422e-02
   5.2246683e-02
  -7.8659505e-02
  -3.7860023e-02
   2.6798165e-02
  -1.8064870e-03
   8.2574186e-02
   4.3393793e-02
   1.1847100e-02
  -3.5106888e-02
  -4.2590549e-02
   6.7505635e-02
  -9.2901653e-03
   5.5180854e-02
  -7.0042357e-02
   6.1395805e-02
  -8.6190146e-02
   6.4004688e-02
   6.2240736e-02
  -4.8903675e-03
  -7.6924559e-02
  -6.8366818e-02
   2.2492569e-02
   4.2765354e-02
  -9.8031970e-02
   2.6126374e-02
   5.8625500e-02
  -5.1539522e-02
  -3.5585010e-03
  -5.9115895e-02
  -8.6212600e-02
   7.2792155e-03
  -1.1241800e-02
  -9.7621362e-02
  -5.4805000e-02
  -9.4594760e-02
  -1.6473704e-01
  -1.9001911e-01
  -1.2244621e-01
  -1.7362123e-01
  -1.7648321e-01
  -1.9823514e-01
  -2.2947017e-01
  -1.9779165e-01
  -1.5048446e-01
  -2.3694698e-01
  -1.5085441e-01
  -1.7844237e-01
  -1.6164865e-01
  -1.8071294e-01
  -1.4367608e-01
  -2.7169343e-02
  -3.6437678e-02
   7.4821557e-02
   2.1197263e-01
   2.5085318e-01
   3.3209713e-01
   4.7492163e-01
   5.4118163e-01
   6.1251236e-01
   7.7243465e-01
   7.1570022e-01
   8.4551024e-01
   1.0556889e+00
   1.0918355e+00
   1.0988961e+00
   1.1753905e+00
   1.1495943e+00
   1.1432705e+00
   1.0942284e+00
   1.0851575e+00
   9.6696588e-01
   9.7186643e-01
   8.6170187e-01
   8.7669678e-01
   6.9818211e-01
   6.3927500e-01
   4.5264513e-01
   3.5456723e-01
   3.1488294e-01
   2.4677881e-01
   7.5781978e-02
   6.5094044e-02
  -3.8559612e-02
  -1.2942469e-01
  -1.0993736e-01
  -1.7523267e-01
  -1.8163843e-01
  -2.5694359e-01
  -3.1533008e-01
  -3.0209076e-01
  -2.2257168e-01
  -3.7002107e-01
  -3.3135155e-01
  -2.5896510e-01
  -2.2629236e-01
  -2.8859116e-01
  -1.6130317e-01
  -9.7857987e-02
  -2.1176986e-01
  -1.3336668e-01
  -1.4177842e-01
  -1.9614365e-03
  -5.2907467e-02
  -1.0210278e-01
  -1.1245649e-01
  -3.1240796e-02
   2.5744401e-02
   3.3651405e-02
   3.8012674e-02
  -6.7940174e-02
  -5.2433372e-03
   5.5076247e-02
  -7.4484755e-02
   5.5729535e-02
   6.5012886e-02
  -5.2469213e-02
  -7.5572142e-02
  -4.8028065e-03
   5.8605846e-02
  -5.3448127e-03
  -1.5058356e-02
   4.7958006e-04
  -6.5409420e-02
  -6.4214014e-02
   6.4696113e-02
   1.7978190e-02
  -4.0985360e-02
   6.3705475e-02
  -7.7167345e-02
  -7.3774390e-03
   3.8804470e-02
  -2.8115578e-02
  -1.7249976e-02
   4.7114741e-03
   6.8845383e-02
   4.8610122e-02
  -7.5201336e-02
  -3.8630858e-02
  -2.1065646e-02
   6.3682767e-02
  -1.3977321e-02
  -4.5425197e-02
   1.7053408e-02
  -3.5966090e-03
   6.9598350e-02
   7.5913274e-02
   5.5512578e-02
   3.6481775e-02
   4.2473608e-02
   6.9801319e-02
  -7.5922173e-02
  -2.8654832e-02
  -8.6557966e-02
   5.7295335e-02
   1.2984399e-03
  -2.3372054e-02
  -4.7736906e-02
   6.0826614e-03
  -3.6762258e-02
  -7.5375390e-02
  -7.2476559e-02
  -7.5380879e-02
  -1.5748745e-02
  -6.5768909e-02
  -9.9510124e-03
   6.9666846e-02
  -2.5559021e-02
  -6.6328295e-02
   1.2068858e-02
   6.5491965e-02
  -2.6443352e-02
  -7.9994335e-02
  -6.2458215e-02
  -7.3939593e-02
   4.2003158e-02
  -7.5920170e-03
   2.9381378e-02
   3.4794342e-02
   1.2461110e-02
   2.2473718e-02
   6.5968914e-02
   2.8351484e-02
   6.5558479e-02
  -5.6725030e-03
  -6.2633489e-02
  -7.5416680e-02
   3.7413152e-02
  -3.3531400e-02
   2.9890364e-02
   2.6617250e-02
   5.4220586e-03
   3.7564141e-02
   8.4007910e-04
  -2.0956720e-03
  -3.7749609e-04
   7.6134411e-02
  -1.9334740e-02
  -6.6857940e-02
  -4.5329835e-02
   3.2290570e-02
   5.9243859e-02
   8.2101357e-02
  -4.9739931e-02
   4.5463759e-02
   1.4686881e-02
  -1.6947566e-02
   1.7533442e-03
  -7.6065002e-04
   2.6433454e-02
   4.2558404e-02
  -3.4584866e-02
  -7.1666068e-02
   5.6923352e-02
  -1.9281421e-02
   4.8076487e-02
  -5.5991775e-02
  -6.8217252e-02
   7.0752801e-02
   6.5722176e-02
   8.7278776e-02
   6.3609796e-02
  -8.0875078e-02
   7.8028948e-03
   8.6898714e-02
   1.9223540e-03
   6.5226431e-02
  -7.5052224e-02
   8.5138890e-02
   7.3818446e-02
   1.1221884e-02
  -1.1968782e-02
  -2.8317204e-02
   3.8544932e-02
  -8.4930328e-02
  -2.1992869e-02
   7.3813520e-02
   8.1167409e-03
  -4.5601359e-03
  -6.0468808e-04
  -3.3359380e-02
   7.8729763e-02
   8.4170487e-02
   2.3685248e-03
   8.7120960e-02
  -5.1110143e-03
  -8.9154810e-03
  -4.4481303e-02
  -4.6367843e-02
   6.6908874e-02
   5.0177637e-02
   1.7694491e-02
   7.1967369e-02
   1.8673632e-02
   2.7874097e-02
  -2.8969059e-02
   3.8836116e-02
  -3.6284258e-02
  -4.9395205e-02
   6.3611061e-02
   5.3557742e-02
  -1.1256484e-02
   2.4533666e-02
   6.6985824e-02
   5.7658371e-02
  -1.3335868e-02
  -2.1678953e-03
  -2.7340472e-02
   4.9708712e-02
   6.6489254e-02
   1.3702896e-02
   1.0703502e-01
  -1.1855660e-03
   2.1783908e-02
   1.7265464e-01
   1.8239838e-01
   2.3183606e-02
   1.1013159e-01
   1.8074217e-01
   7.8998465e-02
   1.8887360e-01
   1.9206243e-01
   1.6682257e-01
   6.4475857e-02
   1.3779619e-01
   2.3702137e-01
   2.0569481e-01
   1.6093888e-01
   2.1304325e-01
   1.5336716e-01
   2.1907086e-01
   2.9922430e-01
   2.8466497e-01
   1.9438286e-01
   2.7286258e-01
   2.2512429e-01
   3.4373202e-01
   1.9505153e-01
   2.3299592e-01
   3.3997046e-01
   2.2202781e-01
   3.0905788e-01
   3.6499779e-01
   3.6300570e-01
   2.6752361e-01
   3.2795447e-01
   3.2127192e-01
   3.5204502e-01
   3.7936326e-01
   3.1034705e-01
   4.5088288e-01
   4.1228212e-01
   3.3633914e-01
   4.1380997e-01
   4.8467313e-01
   4.6523808e-01
   4.5442654e-01
   4.2200087e-01
   3.9154435e-01
   4.5069630e-01
   3.9942782e-01
   4.1614464e-01
   5.2343839e-01
   5.2247098e-01
   5.0974415e-01
   5.3535917e-01
   4.0711582e-01
   4.6806321e-01
   4.8847894e-01
   5.3945403e-01
   4.9623378e-01
   4.5054974e-01
   5.1551252e-01
   5.3196858e-01
   4.9672321e-01
   4.0872804e-01
   5.5675638e-01
   4.0614479e-01
   4.8951937e-01
   4.1864035e-01
   4.6346937e-01
   5.3842995e-01
   4.3771147e-01
   5.4773173e-01
   5.1553451e-01
   4.5442106e-01
   4.2885383e-01
   4.2594085e-01
   5.1186875e-01
   3.8229238e-01
   4.8845694e-01
   4.7210417e-01
   4.8887854e-01
   5.2344315e-01
   4.1382782e-01
   3.8582470e-01
   4.8701751e-01
   4.6765354e-01
   4.0021057e-01
   3.2816964e-01
   4.0312326e-01
   3.2940767e-01
   3.8143395e-01
   3.4238447e-01
   3.2695564e-01
   3.9019586e-01
   3.4455441e-01
   3.8365532e-01
   2.7229554e-01
   3.4590266e-01
   2.2735055e-01
   3.4879373e-01
   3.1798344e-01
   3.5528654e-01
   1.9657380e-01
   3.2982559e-01
   2.5073810e-01
   2.5966561e-01
   1.9808051e-01
   1.4701664e-01
   2.7272773e-01
   1.4022373e-01
   1.7058293e-01
   2.0567322e-01
   2.6228749e-01
   1.6982881e-01
   2.4395797e-01
   1.0224471e-01
   1.2398865e-01
   1.6822679e-01
   5.0173216e-02
   1.6174914e-01
   9.7299527e-02
   1.5836536e-01
   7.5875471e-02
   5.8503813e-02
   1.6817910e-01
   1.1500093e-01
   5.5439210e-02
  -5.5912017e-03
   9.9561060e-02
   7.6777797e-02
  -2.7219993e-02
  -2.4570659e-02
   1.2060115e-01
   3.0941083e-02
  -5.6800904e-02
  -5.6214397e-02
  -4.5514209e-02
   8.1412419e-02
   2.5311594e-03
   1.4927412e-02
  -3.6808806e-04
  -7.5677620e-02
   6.9441016e-02
  -3.7022840e-02
  -4.0331355e-02
   1.6449129e-02
  -4.2122460e-03
  -2.2996843e-02
   2.7174365e-02
   7.6522937e-02
   2.1029850e-02
  -3.7922635e-02
  -5.1484198e-02
  -1.0629015e-02
  -8.2556294e-02
   6.5693071e-02
   1.9225409e-02
  -5.1761663e-02
   3.4780751e-03
  -7.7915662e-02
   6.3248791e-02
  -9.9653193e-03
   8.3838391e-03
   1.1675907e-02
   3.1502377e-02
  -2.2461159e-02
  -7.3653921e-02
  -7.6224731e-03
  -7.8960037e-02
   4.1606819e-02
  -8.0678792e-02
   7.9324686e-02
   4.2325481e-02
   7.6391818e-02
   2.3337529e-03
  -4.5245795e-02
  -4.1917263e-02
   4.5224658e-02
   8.6152447e-02
  -2.5023475e-02
   4.4156565e-02
  -6.8097231e-02
   1.6947008e-02
  -1.2120160e-02
   4.0290287e-02
  -4.1705805e-02
  -7.0758735e-02
  -8.5632459e-03
   2.4461212e-02
  -6.4257061e-02
  -8.2386191e-03
   2.6578616e-02
   5.7103719e-02
  -3.3515529e-02
  -1.7050248e-02
   6.7098315e-02
   3.5027200e-02
  -4.5076841e-02
   4.5374430e-02
  -3.6510639e-02
  -3.8865877e-02
  -8.6248394e-02
  -2.1879193e-02
  -1.1013429e-02
  -3.4175358e-02
  -3.6522060e-02
  -4.4964377e-02
   7.6258059e-02
   6.2900022e-02
  -1.7947029e-02
  -3.5940418e-03
   1.1350268e-02
  -1.8127660e-03
  -4.0197795e-02
   8.5523321e-02
  -5.5239713e-02
   6.3156114e-02
  -8.1616374e-02
  -2.9345171e-02
   4.3438688e-02
   2.5210715e-02
  -5.7760975e-02
   7.8968577e-02
   7.5562812e-03
  -4.3410665e-02
   1.3721082e-02
   7.2554678e-02
   6.9083021e-02
  -3.0548694e-03
  -9.9993177e-03
  -3.2873233e-02
  -7.7655556e-02
   4.4319657e-02
  -6.4273012e-02
  -2.5160320e-02
  -1.8184054e-02
   6.7323572e-02
  -8.3605938e-02
   6.0086816e-02
  -3.7009223e-02
  -4.3597622e-02
  -2.0292643e-03
   3.9996577e-02
  -5.1932151e-02
  -4.9546686e-02
   8.3182296e-02
   1.6281766e-02
  -3.4157003e-02
   8.1674954e-02
   6.9148212e-02
  -5.4130851e-02
  -8.7000784e-02
   3.6980306e-02
   6.4216129e-02
  -6.6654890e-02
  -8.0500418e-02
   1.7147710e-02
   1.8216267e-02
   2.8695918e-03
  -8.6003982e-02
   3.2993433e-02
   7.7888538e-02
   6.5230671e-02
  -6.7533533e-02
  -2.5396556e-02
  -4.5065571e-02
   1.0536006e-02
   1.9685535e-02
  -3.4784708e-02
   5.2064488e-02
   5.1627897e-02
   4.9087142e-02
  -2.6002681e-02
  -7.7833053e-02
   3.6446087e-02
   8.6080094e-02
  -5.8941731e-02
  -6.7482910e-02
   7.2100436e-02
  -3.2032415e-03
   6.1435873e-02
   5.4120247e-02
  -5.4701181e-02
  -4.4146489e-02
  -7.7852003e-02
   1.9027939e-02
   4.8413099e-02
   1.9321219e-03
  -8.2469002e-02
   8.5635982e-02
   1.6413889e-04
  -2.9338279e-02
  -5.6949787e-02
   2.1939884e-02
   1.3120796e-02
   4.3829578e-02
  -6.0506012e-02
  -2.5009252e-02
  -6.2176872e-02
   6.1226615e-02
  -2.8312807e-02
  -3.9257436e-02
  -8.6265304e-02
   5.2722887e-02
  -4.5259124e-04
   6.6084954e-03
   6.4772454e-02
   3.8915172e-02
   2.9352846e-02
  -5.6086303e-02
   8.8180038e-03
   8.0307985e-02
   1.6768265e-02
   5.3885703e-02
   8.4613885e-02
   6.7393986e-02
  -4.9972644e-02
  -8.1267552e-02
  -8.5352523e-03
  -8.4906057e-02
  -4.5908919e-03
   7.8792548e-02
  -4.3840464e-02
  -1.9833986e-02
  -1.1973789e-02
   5.7782707e-02
   5.6693074e-02
  -8.2078523e-03
  -2.0857778e-02
   7.4369424e-02
   4.2058523e-02
   4.1497864e-02
   7.8044941e-02
   1.7637116e-03
   5.0970862e-02
  -8.3519413e-03
   6.0980570e-02
  -1.9134064e-02
   4.1627690e-02
   8.3200465e-02
   4.0687145e-03
  -1.2238891e-02
  -5.1138984e-02
  -3.0839417e-02
  -6.7953734e-02
  -2.1792068e-02
  -2.9703868e-02
  -2.7573174e-02
   5.5378465e-02
   5.5332064e-03
   3.6885433e-03
   4.7902704e-02
  -6.6313512e-02
   2.1907360e-02
  -2.6779740e-02
  -2.8880417e-02
   1.3030290e-02
   6.3554430e-02
  -5.2639931e-02
   3.0115112e-02
   7.0171812e-02
  -5.2536181e-02
  -3.5225639e-02
  -6.0766520e-04
   6.8088976e-02
   2.4702983e-04
  -3.8943321e-02
   5.9301167e-03
   1.2966200e-02
  -1.5226967e-02
  -8.4736822e-02
   3.5308818e-02
   1.2782551e-03
  -1.7634501e-02
  -6.8276006e-02
  -1.2296181e-02
  -2.8907706e-02
  -2.8977087e-02
   8.3295329e-02
   1.5890483e-02
  -3.7059168e-02
   2.5780257e-02
   1.0262223e-01
   3.4509235e-03
   1.4148579e-01
   4.5827906e-02
   5.5774423e-02
   4.2250675e-02
   1.4916371e-01
   3.6204411e-02
   1.9878943e-01
   6.9613175e-02
   1.0120704e-01
   1.8037836e-01
   9.4333994e-02
   1.6841069e-01
   2.1415032e-01
   2.5938923e-01
   2.3393230e-01
   2.4563096e-01
   1.9411522e-01
   1.7280743e-01
   2.2934112e-01
   1.8364248e-01
   2.9899120e-01
   2.7365297e-01
   3.0582417e-01
   3.0671985e-01
   2.5410484e-01
   2.2963735e-01
   2.9845696e-01
   3.5281900e-01
   3.1623855e-01
   3.2755470e-01
   3.0558858e-01
   2.8524860e-01
   3.1115941e-01
   2.6392760e-01
   3.2526312e-01
   1.8206468e-01
   3.3472218e-01
   1.7743081e-01
   2.4970361e-01
   2.1805564e-01
   1.5947742e-01
   2.5974614e-01
   2.3265235e-01
   2.5411474e-01
   2.0793395e-01
   2.4216566e-01
   1.9250737e-01
   2.4774082e-01
   2.2616669e-01
   1.5372757e-01
   1.9393719e-01
   1.2989034e-01
   1.8321864e-01
   8.6199960e-02
   1.9184947e-01
   6.1668994e-02
   1.7703443e-02
   1.2827118e-01
   1.3463547e-01
   1.4325290e-01
   3.2193252e-02
   1.0869962e-01
   5.5979656e-02
   3.6790185e-02
   9.3512616e-02
   1.1101643e-01
  -4.6895465e-02
   5.8940228e-02
  -2.8089795e-02
  -3.5558688e-03
  -3.0092431e-02
   6.4966800e-02
   9.0307129e-02
   2.7051014e-02
   3.5516283e-02
   7.5493107e-02
   3.2769764e-02
   1.1936645e-02
  -2.0807596e-02
   2.3501615e-02
  -2.3884386e-02
  -1.6132416e-02
  -2.2928967e-02
  -5.5185245e-03
   5.9615945e-04
   7.1691864e-02
  -5.1265951e-02
  -2.8184640e-02
   1.2944557e-02
  -2.2819881e-03
  -4.1523699e-02
   1.3899406e-02
   6.6067366e-02
  -7.6671263e-02
  -1.0324742e-02
  -7.2601025e-02
   1.1043185e-02
   6.8648066e-03
   4.6810951e-02
  -4.6610446e-02
   1.5255981e-02
  -7.1643936e-03
   6.3038203e-02
   2.8086807e-02
  -2.5517081e-02
  -2.6685857e-02
  -4.3008208e-02
   7.9024990e-02
  -3.5240161e-02
  -5.9652547e-02
  -2.4221695e-02
   4.2195688e-02
   3.5956319e-02
   3.5081800e-02
  -8.6227791e-02
  -2.1943028e-02
   7.0113180e-02
  -3.1722443e-02
   1.6953591e-02
  -3.5311027e-02
  -6.5483739e-02
  -1.9496450e-02
   5.5477811e-02
   8.4027713e-02
   6.3214285e-02
  -7.2677359e-02
  -2.8340355e-02
  -4.6079764e-02
  -3.1816645e-02
   8.4599225e-02
   8.4260531e-03
   4.3526747e-02
   5.9697568e-02
  -5.8171050e-02
   7.0392936e-02
  -6.8957174e-02
   4.2800607e-02
   4.0055222e-02
   3.7976717e-02
  -6.4013810e-02
  -9.4668670e-03
   1.5345142e-03
   5.3245195e-03
   6.2817387e-02
   3.1036101e-02
   5.3408535e-02
   5.4559423e-03
   7.9613090e-02
  -7.5571205e-02
   5.8502931e-03
  -4.1828654e-02
  -9.0353743e-03
   2.4682762e-02
  -6.0046838e-02
   8.2881534e-03
  -4.2454855e-02
   5.3007347e-02
  -7.9120299e-02
  -8.6231528e-02
   6.1275585e-02
  -8.1813724e-02
  -8.4777275e-02
  -8.7850852e-02
  -1.0337350e-01
  -4.4658839e-02
  -1.3205745e-02
   7.6552127e-03
  -8.3162380e-03
  -3.2054292e-02
  -8.5585298e-02
  -5.7074251e-02
  -2.6909073e-02
  -1.1989141e-01
  -1.6894357e-01
  -9.7890273e-02
  -2.0713474e-01
  -2.1839870e-01
  -1.8636454e-01
  -1.6415148e-01
  -1.6506003e-01
  -2.4580119e-01
  -2.3419694e-01
  -1.8763993e-01
  -8.2833980e-02
  -1.0558827e-01
   9.9501079e-03
   7.9883978e-02
   4.6774011e-02
   5.6102673e-02
   2.2583123e-01
   3.4405061e-01
   3.6330913e-01
   4.9186612e-01
   5.4509222e-01
   7.7091037e-01
   7.8950997e-01
   8.9288452e-01
   9.2198820e-01
   9.7373988e-01
   1.0263917e+00
   1.1995958e+00
   1.2115083e+00
   1.1110593e+00
   1.2132995e+00
   1.1377843e+00
   1.0764901e+00
   1.0623353e+00
   8.0936860e-01
   7.8037235e-01
   6.8675085e-01
   5.9338239e-01
   3.9592640e-01
   3.8916780e-01
   1.7971906e-01
   1.7092432e-01
   1.0862597e-01
  -1.1311168e-02
  -5.9763399e-02
  -1.9118302e-01
  -1.6636363e-01
  -2.5274344e-01
  -3.3110363e-01
  -3.0389016e-01
  -3.3571162e-01
  -3.4317929e-01
  -2.7303377e-01
  -2.8129612e-01
  -2.8655129e-01
  -3.0328198e-01
  -1.7118578e-01
  -1.4865713e-01
  -2.2663073e-01
  -1.4574895e-01
  -9.4792748e-02
  -4.3070014e-02
  -3.0124685e-02
  -1.0681463e-01
  -1.3081265e-01
  -7.2782996e-03
  -1.1573911e-01
  -9.8679513e-02
  -5.6676736e-02
   3.5529078e-02
  -5.7439196e-03
  -1.1507943e-03
   6.1364088e-02
   2.7109179e-03
  -9.3872648e-02
   4.7526555e-02
   1.4201204e-02
  -6.7076740e-03
  -4.2137295e-02
  -4.2543628e-02
  -3.2163047e-03
  -4.7614357e-02
  -7.8827581e-02
  -5.7760302e-02
  -4.2182521e-02
  -5.2753967e-02
   1.8457180e-02
   5.6528368e-02
   5.4242691e-02
   5.2779650e-02
   3.6342839e-02
   6.2758155e-02
   4.9085789e-02
  -5.1725956e-02
   8.6152532e-02
  -7.0965349e-02
   2.6302516e-02
  -4.9738723e-02
  -4.4727440e-02
  -2.7995319e-02
  -5.2762299e-02
   1.1933126e-03
   7.8715867e-02
  -1.8404741e-02
   1.4750095e-02
   1.8604599e-02
   3.7483084e-02
  -1.7194707e-02
   6.2638213e-02
   7.3429292e-02
   4.3803995e-02
  -3.7442121e-02
   5.1832941e-02
  -6.2383803e-02
   7.9459979e-04
   1.9329437e-02
   3.5589024e-02
  -2.0372348e-02
   3.9934989e-02
   6.7631524e-02
  -7.7562208e-02
  -6.3178280e-02
   6.3402037e-02
  -1.3665412e-02
  -1.5487206e-02
   8.0179852e-02
   4.3700336e-02
   8.3996526e-02
  -4.6536135e-02
  -7.0510921e-02
  -2.0155411e-02
   4.7595571e-05
   1.2268782e-02
   8.3234176e-02
  -1.2476997e-03
  -1.7308825e-02
   8.6440149e-02
  -4.1736918e-02
   2.8870654e-02
   8.1073133e-02
   2.9888105e-02
  -3.5070095e-02
   5.4356254e-03
  -8.7059486e-02
   6.7021040e-02
  -1.6697447e-02
  -3.4715468e-02
   7.8685063e-02
  -6.8720060e-03
  -3.7083115e-02
  -7.2536650e-02
   1.4351327e-02
  -6.0584613e-02
  -7.4550541e-02
   1.4069027e-02
  -3.7193614e-02
  -2.4112896e-02
   3.9261136e-02
   6.2571968e-02
  -2.6558484e-02
   8.0634635e-02
   7.9206763e-02
  -5.1334693e-02
   4.6843600e-02
   2.0175332e-02
   7.3156434e-02
   1.7906082e-02
   3.5299399e-02
   4.2552957e-02
  -2.0064589e-02
  -4.3394893e-02
  -8.0895647e-02
  -4.8681825e-03
   2.5333981e-02
  -3.8598479e-02
   3.1190507e-03
  -4.4414235e-02
  -3.5361148e-02
   2.6277291e-02
   6.8349013e-02
   6.3060022e-02
  -5.0657530e-02
  -1.7621230e-02
   6.7736012e-02
  -4.2517513e-02
   8.1517564e-02
   2.0808449e-02
  -5.8440669e-02
   5.6964136e-02
   2.7188686e-02
   8.1120148e-03
  -4.3425367e-02
  -8.0302491e-02
  -4.6560652e-02
  -2.4253848e-02
   2.3305253e-02
   8.4887311e-02
  -5.1139235e-02
   4.4894569e-02
   6.7464478e-02
  -4.8494996e-03
  -5.9563931e-02
   5.4296097e-02
  -4.1024511e-03
  -6.7007708e-02
   6.6712091e-02
   2.6207597e-02
  -6.6326758e-02
   7.6925782e-02
  -7.4000152e-02
  -7.1573511e-02
   9.5918611e-02
   4.5012893e-02
  -7.0337663e-03
   1.7355144e-02
   6.4814250e-02
  -5.7679994e-02
   6.2953747e-02
   6.1257919e-02
   2.1621105e-02
   4.5971142e-02
   6.5002520e-03
  -1.9818684e-02
   2.3296144e-02
   1.1760569e-01
   1.5931472e-04
   2.7427599e-02
   2.4963264e-02
  -1.2919055e-02
   6.6211782e-02
   1.2662818e-01
   1.4375766e-01
   1.1694655e-01
   6.2567561e-02
   5.2927718e-02
   1.2717860e-01
   1.6573919e-01
   1.7923887e-01
   3.8074172e-02
   1.1437419e-01
   5.8983927e-02
   8.7350876e-02
   2.0435120e-01
   9.1260837e-02
   8.5276989e-02
   1.6643046e-01
   1.3402722e-01
   1.5360080e-01
   2.3301150e-01
   2.4923091e-01
   2.2967468e-01
   1.9209209e-01
   2.4005285e-01
   1.7367004e-01
   2.5267900e-01
   2.7159363e-01
   2.6754173e-01
   2.3186103e-01
   2.4402041e-01
   2.1923074e-01
   3.3717899e-01
   2.9331942e-01
   2.7821279e-01
   3.6053394e-01
   2.7533822e-01
   3.9031827e-01
   3.9407510e-01
   4.0786186e-01
   3.3313073e-01
   3.4370837e-01
   4.3529989e-01
   3.7379746e-01
   4.0011984e-01
   4.2930643e-01
   4.8278998e-01
   4.1738764e-01
   4.3965037e-01
   4.3437996e-01
   5.0248659e-01
   4.9692438e-01
   3.8094403e-01
   3.8719121e-01
   4.0290817e-01
   4.9566823e-01
   4.0265984e-01
   5.4263590e-01
   4.9760921e-01
   4.0652141e-01
   5.2756947e-01
   5.3779553e-01
   5.4792022e-01
   4.7992883e-01
   4.8088060e-01
   4.1713535e-01
   4.7888877e-01
   4.8766465e-01
   4.2274740e-01
   4.8193354e-01
   4.9023253e-01
   4.3220269e-01
   5.0670899e-01
   4.0168046e-01
   4.5215547e-01
   4.8816271e-01
   4.5034950e-01
   4.9624552e-01
   4.5158931e-01
   4.0894619e-01
   5.4136425e-01
   4.8974579e-01
   4.8862673e-01
   4.8671794e-01
   4.9380711e-01
   5.0555447e-01
   4.4300884e-01
   3.7330583e-01
   4.0686040e-01
   4.7715962e-01
   3.5681036e-01
   3.7730858e-01
   4.8106000e-01
   4.4538788e-01
   3.3548568e-01
   4.6317538e-01
   2.9151569e-01
   3.4628712e-01
   3.3389457e-01
   3.2438815e-01
   2.6513005e-01
   3.1068239e-01
   3.3462852e-01
   3.9073014e-01
   2.4728627e-01
   2.6131818e-01
   2.3657882e-01
   2.3148930e-01
   2.0408347e-01
   1.6567698e-01
   2.3076445e-01
   1.8543189e-01
   2.8519072e-01
   2.1649630e-01
   2.7462042e-01
   2.7596243e-01
   1.9921794e-01
   1.0886167e-01
   2.4128539e-01
   1.7463852e-01
   2.1699074e-01
   1.2861123e-01
   1.5263036e-01
   5.1242444e-02
   1.9267801e-01
   1.3601133e-01
   3.4933777e-02
   1.3186530e-01
   7.1904310e-02
   1.0811917e-02
   2.7039445e-02
   2.6732751e-02
   1.6765437e-02
   9.4050657e-02
   9.7182666e-02
   5.5457665e-02
   5.1039810e-02
   5.9301927e-02
   1.1627535e-01
   5.0049003e-02
   3.9242564e-02
   8.8656318e-02
   2.5070201e-02
  -2.0240619e-02
   8.4130211e-02
  -9.8912252e-03
   1.7532383e-02
   3.8464416e-02
   3.1120062e-02
  -5.0160894e-02
  -7.3061110e-02
  -3.9382661e-02
   6.4179736e-02
   1.0365525e-02
  -6.1770523e-03
  -1.2171554e-02
   4.7846161e-02
   2.6879123e-02
   2.7544263e-02
  -5.9195919e-02
  -1.1809035e-02
   8.8818291e-04
  -2.1770724e-02
  -3.4275978e-03
  -2.7517950e-02
   4.8398083e-02
  -2.0266883e-02
   3.6944099e-02
  -3.3295991e-03
   4.0021742e-02
   7.6410970e-02
   3.0131363e-03
   7.0387896e-02
  -4.9212019e-02
   6.5175293e-02
  -7.2874333e-02
  -6.0416014e-03
  -8.3485395e-02
   5.3835032e-02
  -5.6019645e-02
  -5.8432552e-02
  -5.5601587e-02
   3.3430567e-02
  -4.9985477e-02
  -3.5256948e-02
   4.6859367e-02
   2.0084103e-04
   7.1504839e-02
  -7.7212148e-02
  -1.1045011e-02
   1.2617846e-02
   1.1362678e-02
   5.6548087e-02
  -6.5294362e-02
  -3.4905607e-02
  -8.6944431e-02
   7.8776878e-02
   4.6503858e-02
   4.3885246e-02
  -6.3065033e-02
  -2.6313328e-02
  -6.0886398e-02
  -5.7266796e-04
   5.3899943e-02
   2.3202877e-02
   3.2900554e-02
   2.4373147e-02
   4.0046453e-02
   6.2839856e-02
   2.2170218e-02
  -5.5778329e-02
   1.2801522e-02
  -5.8751442e-02
   7.0908815e-02
  -7.3808629e-02
  -2.8196694e-02
   1.4078242e-02
  -4.3246844e-03
   5.3318117e-02
   5.3747868e-03
  -4.7619797e-02
   3.6582361e-02
  -6.1359297e-02
   2.7611829e-02
   2.3397372e-02
  -4.7271249e-02
  -5.5492522e-02
  -5.8264862e-02
  -6.1189114e-02
  -5.1909222e-02
   7.9449473e-02
  -8.4536927e-02
   7.9895731e-02
  -8.2828356e-02
   8.2270055e-02
  -3.5345867e-02
   4.3785118e-03
   6.3275297e-02
   6.9224188e-02
  -5.4308087e-02
   2.8066456e-02
   7.7052159e-02
   8.3072735e-02
  -6.8466267e-02
  -5.6073828e-02
   4.3055276e-02
  -7.8676312e-02
  -7.4866521e-02
  -1.8990105e-03
   6.1101958e-02
   8.6798347e-02
  -8.6547918e-02
   7.4405414e-03
   6.3102232e-02
   7.1447948e-02
   6.0308569e-02
   6.6162572e-02
   4.2990804e-02
  -6.6797830e-02
   1.5755567e-03
  -5.7831909e-02
   5.7822002e-02
   7.4743536e-02
  -5.7717934e-02
   6.7012048e-02
  -1.9582503e-02
  -2.0506895e-02
  -3.9911176e-02
   6.4243433e-02
   4.2173574e-02
  -9.1029851e-03
   3.6609234e-02
   7.7593572e-02
  -5.6908796e-02
  -4.4601151e-02
   2.4610453e-02
   5.3893003e-02
   6.1709179e-02
  -1.7791715e-02
  -6.7146316e-02
  -7.3295537e-02
  -2.4366540e-02
   5.7436776e-02
  -4.9837707e-02
   5.0824372e-02
   2.7013220e-02
  -8.2749046e-02
   4.9905113e-02
   7.3792185e-02
  -1.3423579e-03
   5.8328455e-02
  -6.4376706e-02
   4.5365988e-02
   7.4346309e-02
   5.8100724e-02
  -4.2015775e-02
  -5.0115009e-02
   3.8968303e-03
  -1.7924529e-02
  -3.6480587e-03
   8.6250393e-02
   1.8245073e-02
   7.7694397e-02
  -1.6690760e-03
  -1.0836392e-02
   4.7613843e-02
   4.2621345e-02
  -9.9706627e-03
  -7.8059601e-02
  -7.1978671e-02
   5.2037288e-02
   2.7169350e-02
  -8.1668242e-02
   9.9655805e-03
   3.8383946e-02
  -6.8034442e-02
  -4.9481869e-02
   5.4313460e-02
  -6.3100475e-02
   6.6691057e-02
   7.3965595e-02
  -8.5087496e-02
  -2.1451680e-02
  -5.8010045e-02
   7.0241068e-03
  -6.9561689e-02
  -8.0457674e-02
   7.5654800e-02
   8.2354091e-02
  -2.4286140e-02
   2.5182590e-02
  -7.5449363e-02
  -5.1007328e-02
  -8.0398980e-02
  -5.3507831e-03
  -6.1103609e-02
   8.5796928e-02
  -1.2737102e-02
   7.9521630e-02
   3.9160259e-02
   1.4126120e-02
   7.0302384e-03
   3.5876195e-02
  -8.6436806e-02
   4.9335730e-02
   7.4542487e-02
  -8.5866329e-02
   5.6689847e-02
   4.6684863e-02
   8.6815016e-02
  -4.7559944e-02
   7.3264655e-02
   2.4797339e-02
  -6.8922936e-02
  -4.0486060e-02
   4.6075037e-02
   5.3351238e-02
  -6.9109299e-02
  -5.2810249e-03
  -4.9060222e-02
   7.3817482e-02
  -3.1377059e-02
   6.2437875e-02
  -4.1937976e-02
   6.6021132e-02
  -5.4437826e-02
   4.5263020e-02
  -8.1781098e-02
   2.4856687e-02
   1.1677667e-02
  -2.1582601e-02
  -5.0197676e-02
   5.1019349e-02
  -6.1916205e-02
  -1.8960539e-03
  -8.5071747e-02
  -5.4826942e-02
  -2.4792053e-03
   6.2164420e-02
  -5.4982222e-02
   5.2952053e-02
   5.0866016e-02
  -5.8491554e-02
   2.6554144e-02
   1.1681891e-01
  -2.6777616e-02
   9.0072421e-02
   7.8793480e-02
   7.8347162e-02
   6.9259449e-02
   8.9249110e-02
   7.2665437e-02
   1.9898694e-02
   6.5930147e-02
   1.2201094e-01
   1.4348402e-01
   2.0452639e-01
   2.2193283e-01
   7.6729765e-02
   1.8524377e-01
   1.8424723e-01
   1.7092781e-01
   1.5939805e-01
   1.8913526e-01
   2.3186558e-01
   2.9056784e-01
   1.4654179e-01
   2.7769477e-01
   2.4855217e-01
   3.1118192e-01
   1.7554521e-01
   2.1450304e-01
   1.7709385e-01
   2.6022090e-01
   3.0976646e-01
   2.2780274e-01
   2.1983966e-01
   2.3963811e-01
   2.6183628e-01
   3.1105448e-01
   2.7032633e-01
   2.4648345e-01
   3.3530953e-01
   3.4274796e-01
   2.7989933e-01
   1.8864160e-01
   2.6815904e-01
   2.2107180e-01
   3.2077716e-01
   1.9087365e-01
   2.5660721e-01
   2.1894801e-01
   1.5112544e-01
   2.2938105e-01
   1.0929596e-01
   1.2399273e-01
   9.0858313e-02
   2.2853980e-01
   2.1173829e-01
   7.6818450e-02
   1.1895575e-01
   5.9480519e-02
   1.2978952e-01
   1.8717700e-01
   5.7857540e-02
   1.7784520e-01
   5.8171978e-02
   2.5899262e-02
   9.8458397e-02
   1.4506019e-01
   7.7027070e-02
  -2.6919378e-02
   2.1110970e-02
  -2.0782494e-02
  -1.4826909e-02
  -5.1097806e-02
   9.2658706e-02
   6.9417530e-02
  -8.0755085e-03
   6.8386713e-02
   5.1227129e-02
   2.5080953e-02
  -1.7594508e-02
  -2.4674290e-02
  -7.1798695e-02
  -2.7647945e-02
   8.4993458e-03
  -6.8895969e-03
   2.5400348e-02
   2.3611445e-03
   5.4908294e-02
  -7.0343897e-02
  -6.3367009e-03
   1.5684828e-02
  -5.4629141e-02
   1.9441584e-02
  -7.8244372e-02
   1.3224197e-02
   5.9783655e-02
  -4.7853227e-05
  -1.0648084e-02
  -6.1285162e-02
  -8.2376559e-02
   4.4822245e-02
   5.1709032e-02
  -3.6051387e-02
  -6.7196446e-02
  -2.1812748e-02
   5.7434715e-02
   5.9684445e-02
   2.8855591e-02
   8.0354244e-02
   7.7381678e-02
  -6.7634288e-02
   2.5895437e-02
  -3.3521885e-03
  -7.5698492e-02
   6.9462789e-02
  -4.8370258e-04
   4.7377718e-02
  -7.6773944e-02
  -4.1482053e-02
   2.6381244e-02
  -6.3983749e-02
   2.4194242e-02
  -2.0092387e-02
   4.6398864e-02
   2.6703666e-02
  -2.0695565e-02
  -3.4922755e-02
  -2.7916429e-02
   7.3157141e-02
  -7.6371264e-03
  -1.0041757e-02
  -8.0005303e-03
   7.7759597e-02
  -4.9050257e-02
   6.6779000e-02
  -8.3844155e-02
  -2.7632598e-02
   4.6456373e-02
  -2.7451190e-02
   2.0747162e-02
  -8.2039145e-03
  -8.5540305e-02
   1.7302544e-02
   1.7736881e-02
   2.6092769e-02
  -2.7465696e-02
  -1.1701510e-03
   3.5235784e-02
   6.7721968e-02
  -7.7700248e-02
  -7.0138053e-02
   2.6156568e-02
   4.6114700e-02
   8.5212270e-02
  -6.5329532e-02
  -2.5066351e-02
   2.7075061e-02
  -2.7396351e-02
   5.5870756e-02
  -4.5427100e-02
  -7.4606262e-02
   1.8049959e-02
  -6.5437585e-02
   4.9253809e-02
   2.7059603e-02
  -3.2978732e-02
  -1.0847465e-01
  -8.5314148e-02
  -6.7195316e-02
   3.3336581e-02
  -1.9018513e-02
  -7.3925860e-02
  -8.7868900e-02
  -7.0295801e-02
   1.3084431e-03
  -6.5638012e-03
  -9.2575779e-02
  -8.4620389e-02
  -8.2609940e-02
  -2.1803909e-01
  -1.3541454e-01
  -2.4028869e-01
  -1.8552834e-01
  -1.8583457e-01
  -2.6836347e-01
  -2.6115112e-01
  -1.0586451e-01
  -1.6253763e-01
  -1.7326133e-01
  -1.4775908e-01
  -1.5098062e-01
  -1.0868885e-01
  -2.2154431e-02
   3.5754759e-02
   1.8389978e-01
   2.1108427e-01
   2.9465268e-01
   3.3030563e-01
   5.6057554e-01
   6.2418296e-01
   7.5272893e-01
   8.1992749e-01
   9.7040642e-01
   1.0544857e+00
   1.0006692e+00
   1.1249538e+00
   1.1836580e+00
   1.1637805e+00
   1.2252905e+00
   1.0903250e+00
   1.0399642e+00
   9.6227229e-01
   9.1609515e-01
   8.9676550e-01
   7.9545695e-01
   6.6845525e-01
   5.4572446e-01
   3.8200589e-01
   4.1625079e-01
   2.8207202e-01
   1.5197851e-01
   2.6909698e-02
   4.3780138e-02
  -2.3724964e-02
  -7.9696947e-02
  -1.9751883e-01
  -1.4970184e-01
  -2.0230856e-01
  -3.5609813e-01
  -3.4012311e-01
  -2.4254260e-01
  -3.1094513e-01
  -2.9118290e-01
  -1.9254823e-01
  -1.7279612e-01
  -1.8747330e-01
  -1.9868420e-01
  -1.1626701e-01
  -1.6669764e-01
  -2.0192426e-01
  -1.5288603e-01
  -1.3894836e-01
  -7.6519334e-02
  -1.4743153e-01
  -1.3436940e-01
  -1.0648941e-01
   3.9036144e-02
   2.2825370e-02
   1.1551878e-02
   6.1918982e-02
   7.0840270e-02
   7.2124233e-02
  -7.1505381e-02
   7.1764154e-02
  -1.1809362e-03
  -7.9177271e-02
  -3.6061716e-02
   6.7308673e-02
   5.8160590e-02
  -8.6804837e-02
   2.4484845e-02
   5.2944773e-02
  -4.4507816e-02
  -7.6117335e-02
  -4.1361409e-02
  -6.9376943e-02
  -2.8431467e-03
  -1.4165206e-02
  -2.0730501e-02
   6.7540792e-02
  -1.3873041e-02
  -3.7746647e-02
  -7.8901127e-02
  -4.9042044e-02
  -4.5547693e-02
  -8.2205590e-02
   3.5329556e-02
  -8.5981603e-02
   1.9370078e-02
  -1.6050324e-02
  -4.3841442e-02
   2.6624042e-02
  -3.1385012e-02
  -6.9210737e-02
   6.2106975e-03
  -5.8523710e-02
   6.6959901e-02
   2.9068388e-02
   6.0726271e-02
   4.5868502e-02
   5.3613815e-02
   2.3217485e-02
   3.6746921e-02
   3.2946314e-02
  -3.1267875e-02
   5.5267766e-03
   6.5170861e-02
  -7.7790737e-02
   6.9987428e-05
  -1.1741560e-02
   7.0599852e-02
   2.2733919e-02
   8.4352615e-02
   1.4878535e-02
   5.9485355e-02
  -5.4460495e-03
   7.8971754e-03
  -5.6038047e-02
   2.3481046e-02
   8.0846491e-02
   5.9398214e-03
  -3.5599631e-03
   5.1282908e-02
  -7.1124403e-02
   6.6499024e-02
  -8.6638564e-02
   2.0133254e-03
   3.1165104e-02
   1.1481512e-02
  -3.7617665e-03
  -3.1343842e-02
   1.7738880e-02
   7.2148863e-02
   3.1873086e-02
   7.8013066e-02
  -7.0011086e-02
   1.9259810e-03
  -6.8083288e-02
   7.9040816e-03
   3.2967682e-02
  -6.1571571e-02
   4.8470484e-02
  -1.7628683e-02
   6.9555120e-02
  -3.3695928e-02
  -7.6653638e-02
  -4.8988754e-02
  -7.2849884e-02
   7.8652537e-02
  -8.4456191e-02
  -6.7290452e-02
  -8.5147851e-02
  -4.9555221e-02
  -8.5319411e-02
   2.4875915e-02
   2.9671278e-03
  -4.4435975e-02
  -5.3480902e-02
  -7.1446271e-02
  -2.2974032e-02
  -8.5954124e-02
   1.7934731e-02
  -3.6925960e-03
  -3.3508408e-02
   4.2687334e-02
   5.9260564e-02
  -4.1486514e-02
   2.4863926e-03
  -9.2948341e-03
  -2.7729298e-02
   5.9224333e-02
   8.4257666e-02
   2.2084496e-02
  -5.5658917e-02
  -6.5832538e-02
   1.3964936e-02
  -2.9942793e-02
  -4.0481614e-02
   8.7732547e-03
  -5.5791334e-02
   3.1170035e-02
  -7.7590119e-02
  -8.1367594e-02
  -3.7280282e-02
  -7.3800376e-02
   6.9951939e-02
   6.0527797e-02
  -1.8214176e-02
  -5.7764938e-02
  -1.2145113e-02
  -1.4630827e-02
   3.9948967e-02
  -1.6332501e-02
   7.8899136e-02
   7.3044944e-02
   8.1430482e-02
  -2.2892810e-02
  -3.1029654e-02
   7.4729554e-02
  -4.1837322e-02
  -5.3860028e-02
   1.6082689e-02
   8.5305960e-02
  -4.2114496e-04
  -3.0836613e-02
  -5.2464724e-02
   9.9125244e-02
   4.4064461e-02
   7.4064582e-03
   6.0401978e-02
   8.5625186e-02
   8.6227306e-03
   7.4544017e-02
  -7.4226683e-03
   1.2810516e-01
   8.8692302e-02
  -2.5681018e-03
   4.9807178e-02
   8.7224667e-02
   1.4358517e-01
   7.8222067e-02
   9.9986229e-02
   1.1457641e-01
   1.6210298e-01
   3.3074426e-02
   8.2836022e-02
   7.2352684e-02
   1.4506058e-01
   1.8562582e-01
   1.2227087e-01
   1.8390596e-01
   1.0699103e-01
   1.5301040e-01
   1.3197841e-01
   2.2809825e-01
   1.9715585e-01
   2.3154796e-01
   1.1400982e-01
   1.5144647e-01
   2.4493730e-01
   1.5701496e-01
   1.3373327e-01
   2.1252006e-01
   3.0848951e-01
   1.9945360e-01
   2.6207966e-01
   2.3417375e-01
   1.8507183e-01
   2.7667320e-01
   3.4270661e-01
   2.5251110e-01
   2.2429790e-01
   2.6822634e-01
   3.4936865e-01
   3.0030981e-01
   3.6665283e-01
   2.6235591e-01
   3.9388119e-01
   3.4508608e-01
   2.9073602e-01
   3.6368747e-01
   4.2557380e-01
   4.6877798e-01
   4.8682367e-01
   4.9371979e-01
   4.8500693e-01
   4.8586275e-01
   4.8045681e-01
   4.4300096e-01
   4.2443264e-01
   3.7818440e-01
   4.7470142e-01
   5.1525919e-01
   4.1583812e-01
   5.1770283e-01
   3.8604099e-01
   4.4203346e-01
   4.2451543e-01
   4.0568963e-01
   4.9017646e-01
   4.3553353e-01
   5.5007470e-01
   4.7336844e-01
   5.1816821e-01
   3.9411252e-01
   4.9959783e-01
   4.9635069e-01
   5.3777756e-01
   5.1186207e-01
   5.5125002e-01
   5.5466638e-01
   4.2306942e-01
   4.2871526e-01
   5.3141308e-01
   4.0168593e-01
   4.5646052e-01
   4.3776804e-01
   5.0999484e-01
   3.9608306e-01
   5.1199246e-01
   5.0547296e-01
   4.5675761e-01
   4.0272792e-01
   3.6517580e-01
   4.5606904e-01
   3.4469513e-01
   3.4461948e-01
   3.4951914e-01
   3.9837574e-01
   4.2969501e-01
   4.5408763e-01
   3.8372852e-01
   2.9710424e-01
   3.3518955e-01
   3.8403305e-01
   4.0061170e-01
   3.0497935e-01
   3.3252769e-01
   3.7950824e-01
   3.3141225e-01
   3.1186083e-01
   2.6666538e-01
   2.7137846e-01
   3.2874231e-01
   2.4051945e-01
   2.5197001e-01
   2.2591805e-01
   2.7095842e-01
   2.4203625e-01
   2.4730479e-01
   2.0994819e-01
   1.8456776e-01
   1.8926807e-01
   1.0861320e-01
   1.5986290e-01
   2.4871753e-01
   2.0732231e-01
   1.8999339e-01
   1.8819057e-01
   1.7870671e-01
   1.8614530e-01
   1.6567749e-01
   1.9478856e-01
   3.6131699e-02
   7.8751916e-02
   8.8713551e-02
   4.1056063e-02
  -3.9595888e-03
   1.5344121e-01
   1.0404077e-01
  -2.8759017e-03
  -8.6881734e-03
   8.2968432e-02
   2.0917899e-02
  -3.7471270e-02
   1.5930049e-02
  -3.5744560e-02
   7.3900421e-02
   9.2334237e-02
  -7.3790838e-02
   3.4701587e-02
   3.5477124e-02
  -4.2424843e-02
   5.9729683e-02
  -3.5980979e-02
  -8.2724371e-02
  -7.1020770e-02
   5.2019653e-02
   3.6917241e-02
   4.9491327e-02
   2.1640611e-02
   5.6827302e-02
  -8.1199006e-02
  -1.6506906e-02
  -4.3715345e-02
  -3.3359845e-03
   6.6505937e-02
  -3.8299010e-02
   1.7313256e-02
  -8.2735129e-02
  -6.0212657e-02
   5.8310855e-02
  -5.3280771e-02
   5.7590885e-02
  -2.8276987e-02
   2.9882083e-02
  -7.8170270e-02
   4.0917392e-02
  -9.0497139e-05
   7.7413468e-02
  -3.6712043e-02
  -2.1556253e-02
  -6.7449901e-02
   8.1176879e-02
  -1.1785505e-02
  -7.2547728e-02
   3.7838202e-02
   1.1852801e-03
  -3.0021038e-02
   4.4272921e-02
   5.8676697e-02
  -4.3008513e-02
   6.0116407e-03
  -1.1322095e-02
  -5.9775125e-02
   1.7547033e-02
   7.6392026e-02
  -6.8497119e-02
   6.9848758e-02
   8.8127014e-03
  -1.2685702e-02
  -6.0704736e-02
  -4.4086042e-02
  -9.1909876e-03
   5.7249717e-03
  -2.5382272e-02
   4.7694040e-02
   6.6652978e-02
   4.0879502e-02
  -1.6339744e-02
   1.8192734e-02
   2.4641175e-02
  -6.5055466e-02
  -6.6499157e-04
  -3.3097736e-02
   1.3721459e-02
   7.7467429e-02
  -1.2758536e-02
  -8.1529780e-02
   7.4992038e-02
   7.4214651e-02
  -2.4743863e-02
  -4.1913101e-02
   5.0094300e-02
   2.0226072e-03
   1.0919117e-02
   3.2270535e-02
  -7.1179783e-02
   6.5063465e-02
   7.7350242e-02
  -7.0446748e-02
   6.0401462e-02
   7.1492756e-02
  -8.5334497e-02
   4.1357106e-03
   2.6254795e-02
  -2.0057067e-02
   2.6072617e-02
   4.5902103e-02
   1.3217043e-02
   2.3037041e-02
  -3.8732235e-02
   5.9345635e-02
  -1.2776812e-02
   2.2985216e-02
   5.8233339e-02
  -4.0132512e-02
  -1.7323167e-02
   9.4744795e-03
  -9.8027927e-03
  -7.1531221e-02
   4.2676308e-02
  -8.1619364e-02
  -1.2269060e-02
  -8.0807888e-02
   8.3088562e-02
   3.9012181e-03
   7.1533683e-02
  -2.0388415e-02
   6.7136894e-02
  -4.2781275e-02
   7.1432374e-02
   6.8902090e-02
  -1.7721948e-02
   2.1832243e-02
   1.1804514e-02
   6.8893611e-02
  -4.9915226e-02
  -8.6641075e-02
   6.6460941e-02
  -4.6255709e-02
  -4.4554291e-02
   2.4608342e-02
  -3.4135890e-02
   5.6863162e-02
   6.7003560e-02
   7.7775480e-02
  -1.9070410e-02
   5.2619523e-02
  -5.9878307e-02
   2.1857633e-02
   3.4748812e-02
  -7.2319708e-02
   5.4448888e-03
   6.7855372e-02
  -4.1271005e-02
  -4.6314404e-02
   5.9314342e-02
  -7.7884461e-04
  -6.0707261e-02
  -4.7015957e-02
   2.7583500e-02
   1.0992676e-02
  -3.6352948e-02
   2.1358119e-02
   3.7703561e-02
  -3.8290940e-02
  -1.5319738e-02
  -2.4063016e-02
   4.9139489e-02
  -6.3654879e-02
   7.0213399e-02
  -3.6735850e-02
  -7.7199363e-05
   4.9523389e-02
   3.0920348e-02
  -6.1153378e-02
   3.4335660e-02
  -6.4785452e-02
   7.7875600e-02
   6.7479101e-02
   2.6202556e-03
   3.1330149e-02
   8.3262424e-02
  -6.5405858e-02
   4.4049204e-02
   5.7113075e-02
   4.9146178e-02
  -5.3981160e-02
  -1.2461363e-02
  -8.4790418e-02
  -3.0510395e-02
  -6.3791985e-02
  -8.6411356e-03
   1.2621371e-02
   5.0996026e-02
  -1.4016396e-02
   5.6818567e-03
   7.4340758e-02
   6.9691661e-02
   7.8292564e-03
   7.0048275e-02
  -7.8264502e-02
   5.3891258e-02
  -2.8830613e-02
  -4.7380067e-02
   5.6301028e-02
  -2.6502795e-02
  -5.8418870e-02
  -8.2402035e-02
   7.9521222e-02
   3.1484167e-02
   6.2964962e-02
   7.6678901e-02
   3.1467272e-02
   7.2894709e-02
  -4.2488934e-02
   6.7340495e-02
   7.3352072e-02
  -3.4914921e-02
  -7.4498739e-02
   4.6695841e-02
  -7.2479795e-02
   3.9949071e-02
  -9.1000315e-03
   2.6412554e-02
  -5.7714888e-02
   5.4919810e-03
   2.3365644e-02
  -8.4853415e-02
  -5.1740537e-03
   6.7464104e-02
  -6.7402214e-02
  -1.0034039e-02
   2.7861848e-02
  -3.5838796e-02
   7.8647834e-02
   3.3928207e-02
  -5.1200376e-02
   9.5631450e-03
   6.6233402e-02
   1.0103689e-02
   4.4065097e-02
   6.8961525e-02
   5.9696248e-02
  -6.4463498e-02
  -5.4283049e-02
  -6.0484876e-02
  -8.2267832e-02
  -8.5728504e-02
   1.6843368e-02
   1.9043284e-02
   7.3156599e-02
   4.0689105e-02
  -3.4625708e-02
   2.3271713e-03
  -3.4531991e-02
   5.3063358e-02
  -4.9425070e-02
   6.5766238e-02
   8.2598472e-02
   7.7325158e-02
   1.2460337e-02
   6.2325671e-02
   4.9178106e-02
  -1.0175907e-02
   1.2690392e-01
   1.0987152e-01
   4.4867974e-02
   1.7588591e-01
   4.7277489e-02
   7.6363683e-02
   1.0469022e-01
   8.3283107e-02
   8.5247511e-02
   1.8356538e-01
   1.0121414e-01
   1.7020000e-01
   1.3990549e-01
   1.7800060e-01
   2.6765834e-01
   1.5238572e-01
   1.2316118e-01
   2.8930565e-01
   2.5714072e-01
   2.3531103e-01
   2.4305389e-01
   1.7585767e-01
   3.3737024e-01
   2.3077172e-01
   2.8137112e-01
   2.4427860e-01
   1.7972309e-01
   2.7570811e-01
   2.7069094e-01
   2.2578000e-01
   1.9021238e-01
   3.2827627e-01
   1.8811088e-01
   2.3242405e-01
   3.1099354e-01
   3.3999522e-01
   2.6799922e-01
   2.9605480e-01
   2.8126280e-01
   2.6136682e-01
   2.5684672e-01
   2.9722412e-01
   2.1892624e-01
   1.8696460e-01
   2.2606702e-01
   1.7741553e-01
   1.1498878e-01
   1.5958315e-01
   1.6961985e-01
   1.3408767e-01
   1.2573524e-01
   1.7849301e-01
   1.2970304e-01
   1.1552932e-01
   3.6871002e-02
   5.6891221e-02
   8.3142232e-02
   1.0849211e-01
   1.1337543e-01
   1.5552620e-01
   1.3787419e-01
  -1.5608963e-02
   1.2850169e-01
  -1.5685994e-02
   1.1965557e-01
   4.9040274e-02
  -1.8264138e-02
  -5.2539356e-02
  -1.6718803e-02
   6.8854333e-02
  -6.3519155e-02
  -1.8513363e-02
  -6.0461941e-02
  -5.8792091e-02
  -7.6562260e-02
   3.5247927e-02
  -7.2212701e-02
   2.0394556e-02
  -5.6969268e-02
   2.6439168e-02
  -2.2764662e-04
  -3.7630898e-02
   5.7725647e-02
   5.5595186e-02
   7.6517523e-02
  -8.7258054e-02
   2.4516170e-02
  -8.6030475e-02
  -6.8730682e-02
  -6.8665492e-02
  -2.3206748e-02
  -4.5472307e-02
  -2.6868537e-02
  -4.3723888e-02
  -1.9721959e-02
  -1.3789069e-02
   2.4461697e-02
   5.0215376e-02
  -4.0165874e-02
   6.0069640e-02
   4.1992993e-02
   5.6947183e-02
  -5.5498768e-02
  -7.5887879e-02
   1.9270466e-02
   3.5197167e-02
  -6.7823199e-02
  -7.0581302e-02
   1.7084712e-02
   5.4525181e-02
   5.4934787e-02
  -7.1696623e-02
   4.0388200e-02
   7.0525474e-02
  -8.3417630e-03
  -7.4970811e-02
  -4.5180596e-02
   4.0490595e-02
  -8.0243949e-02
  -1.3180590e-02
   7.0227607e-03
   7.9251955e-02
  -5.0833790e-02
  -6.6999926e-02
   2.5534410e-02
  -6.8383171e-02
   8.4433068e-02
  -4.3946681e-02
   1.8572899e-02
   5.5304495e-02
   5.7637367e-02
  -1.9140614e-03
   4.5530975e-02
   7.2490299e-02
   7.0022257e-02
  -4.9902704e-02
   8.2182809e-03
   4.9718817e-02
  -5.3359752e-02
   4.3114253e-02
  -4.2682673e-03
   1.4539446e-02
  -4.1815488e-02
  -7.2502454e-02
  -3.5252060e-02
   7.2843300e-02
  -5.1484080e-03
  -4.0257881e-02
   4.6022534e-02
   4.6129415e-02
  -8.7295447e-02
   6.0656989e-02
   4.4469459e-02
  -3.9806024e-02
   1.8920226e-02
  -4.7673203e-02
   6.1582525e-02
  -5.3176249e-02
  -7.4623491e-02
   2.3913444e-02
  -2.5193028e-02
   2.6960202e-03
   5.3778155e-02
  -6.4351010e-02
  -1.1066638e-01
   8.1898271e-03
  -7.3707996e-02
  -4.4139094e-02
  -1.2449891e-01
  -1.5468265e-01
  -1.5398087e-01
  -4.9817646e-02
  -1.5565892e-01
  -1.5517725e-01
  -1.2217471e-01
  -1.0567759e-01
  -1.2550193e-01
  -2.0217272e-01
  -2.3915932e-01
  -1.5961640e-01
  -2.6658541e-01
  -2.0641429e-01
  -1.2579618e-01
  -1.0792102e-01
  -1.2060975e-01
   3.7885557e-02
  -6.1894324e-02
   1.0559120e-01
   7.4335030e-02
   2.0198748e-01
   3.5881963e-01
   3.7023601e-01
   4.1909845e-01
   6.0364091e-01
   6.5472144e-01
   7.2834571e-01
   9.2076573e-01
   9.6823857e-01
   9.8889274e-01
   1.0335601e+00
   1.0916877e+00
   1.1003157e+00
   1.1334283e+00
   1.2229787e+00
   1.1112110e+00
   1.0050384e+00
   9.6574655e-01
   9.2032780e-01
   8.0192910e-01
   7.0754419e-01
   6.4221422e-01
   4.4786593e-01
   4.0467512e-01
   1.9794896e-01
   8.3835162e-02
   4.3608027e-02
   4.6188517e-02
  -1.0168385e-01
  -5.8669001e-02
  -1.7340821e-01
  -2.6014882e-01
  -1.8716120e-01
  -2.1292310e-01
  -2.3305613e-01
  -3.4047143e-01
  -3.3195892e-01
  -2.3641287e-01
  -2.3623035e-01
  -2.5530767e-01
  -1.5213118e-01
  -2.1586292e-01
  -1.0247465e-01
  -1.6754526e-01
  -1.4299693e-01
  -7.5564193e-02
  -1.2294381e-01
  -9.4862336e-02
  -1.3601471e-01
  -1.3957040e-02
  -3.6907674e-02
  -1.3143591e-02
   2.0549880e-02
  -7.4018123e-02
   4.2298465e-02
   5.4477811e-02
  -4.9319567e-02
   2.9043636e-02
  -3.6337579e-02
  -4.6196677e-02
  -6.2379948e-02
   2.5442503e-02
   4.5607750e-03
   5.7172378e-02
  -4.0525560e-02
  -5.6552916e-02
  -1.2016925e-02
  -4.2513607e-03
   4.9808127e-02
  -6.4499312e-02
  -7.8346748e-02
   2.2266456e-02
  -8.2235441e-02
  -6.3531335e-02
   3.3975244e-02
   2.7380163e-03
   7.4361681e-03
   5.3870475e-02
   5.1286391e-02
   3.2604941e-04
  -3.9006744e-02
  -6.6417911e-02
   6.7511567e-02
   8.2126567e-02
   7.7278370e-02
   2.4121316e-02
  -7.1495242e-02
  -7.4268722e-02
  -5.5453593e-02
  -8.1781384e-02
   3.9280627e-02
  -6.2140547e-02
   2.3736900e-02
   5.0616079e-02
   1.1569783e-02
  -2.1407206e-02
   5.6158583e-02
  -3.4073661e-02
  -3.1542876e-02
   4.9766038e-02
   6.5249400e-04
  -4.1737141e-02
   4.0597201e-02
  -5.8859048e-02
   7.3532366e-02
  -4.8508117e-02
  -7.2714410e-02
  -7.4444498e-02
   4.7071806e-02
   5.5475939e-02
   4.1985511e-02
   4.5097986e-02
   8.0538479e-02
  -5.8632089e-03
   5.0118197e-02
  -1.3521936e-02
   7.7488563e-02
  -8.7085467e-02
   8.4043815e-02
   1.2258010e-02
  -2.6810847e-02
   1.0041758e-02
  -3.4963597e-02
  -5.9536113e-02
   2.8858705e-02
   3.2167332e-02
   5.1063447e-02
  -2.6434714e-02
  -4.3644449e-02
  -2.7067059e-02
  -2.9925890e-02
   7.4651799e-02
   4.4717929e-02
  -3.6979887e-02
   1.8542192e-02
   4.6456708e-02
   6.0448584e-02
   7.0197976e-02
   1.6713339e-02
  -7.5346533e-02
  -4.9238085e-02
   6.4509805e-02
  -1.4980136e-02
   2.8151954e-02
   4.9504958e-02
  -4.4026666e-02
   9.5042882e-03
  -4.7222502e-02
  -8.6107824e-02
   4.6563238e-02
  -8.3502260e-02
  -1.8667347e-02
  -4.3213913e-02
  -5.1652599e-02
   2.8338863e-02
   7.2426409e-02
  -8.6109608e-02
   4.3032883e-02
   5.2331511e-02
   7.1213929e-02
   8.2874846e-02
  -6.6383239e-02
   3.3126898e-03
   5.6226461e-02
   2.3928291e-02
   7.9266369e-02
   7.8046753e-02
   8.1483274e-02
  -7.5554684e-02
  -1.0908299e-02
  -3.1286721e-02
  -6.3905489e-02
  -6.3812395e-02
   5.3427640e-02
   4.3245835e-03
   7.7580595e-02
   8.5278828e-02
  -1.5735179e-02
  -2.2494461e-02
  -4.7699470e-02
  -9.4246137e-03
  -4.0824750e-02
  -7.1429967e-03
  -1.1716743e-02
  -4.1976960e-02
  -6.3964435e-02
  -1.4105141e-02
   1.1980511e-03
  -3.0678203e-02
   3.3352205e-02
  -7.3375802e-03
  -7.2351564e-03
   5.6770697e-02
   6.2305609e-02
   5.2826433e-02
   6.1112765e-02
   1.2721335e-02
   2.4136419e-02
   3.9432827e-02
  -5.1403152e-02
  -2.3312568e-02
   4.3709082e-02
  -7.9598426e-03
   7.5420552e-02
  -9.0487836e-03
  -4.5816014e-02
   2.1735832e-03
   5.0743016e-02
   1.2621447e-01
   8.1026848e-02
   8.9748629e-02
   6.5908255e-02
   6.5624645e-02
   1.2961268e-01
   4.9831807e-02
   6.5777229e-02
   2.6950860e-02
   1.2792761e-01
   9.6353829e-02
   6.8795700e-02
   1.3440024e-01
   3.6858525e-02
   2.5039438e-02
   1.3439186e-01
   1.5169692e-01
   1.4447152e-01
   2.0888985e-01
   1.6805075e-01
   1.5586376e-01
   1.1682298e-01
   8.8020969e-02
   2.1470545e-01
   1.2347521e-01
   1.5165073e-01
   1.5618882e-01
   2.1482437e-01
   2.2230671e-01
   2.7391321e-01
   2.9674422e-01
   2.9121320e-01
   3.3187619e-01
   2.0290015e-01
   3.4289550e-01
   1.9716987e-01
   2.4030899e-01
   2.0883135e-01
   3.3356538e-01
   3.8319253e-01
   3.3394606e-01
   2.6993321e-01
   3.3921342e-01
   3.5922819e-01
   3.0136290e-01
   3.3339943e-01
   4.0992660e-01
   3.8934294e-01
   3.2533166e-01
   3.7430789e-01
   3.8423789e-01
   4.2270140e-01
   3.3187308e-01
   4.3554781e-01
   5.0337440e-01
   3.6474819e-01
   4.7914031e-01
   5.2546739e-01
   4.6671468e-01
   4.9006021e-01
   4.2075464e-01
   4.5114408e-01
   3.8207224e-01
   4.4317904e-01
   4.4085153e-01
   4.2920580e-01
   5.2260755e-01
   4.5896072e-01
   5.2344724e-01
   5.2427290e-01
   4.3859793e-01
   4.0381384e-01
   4.0347755e-01
   5.0701558e-01
   4.7087799e-01
   5.5561794e-01
   4.7076175e-01
   4.2398821e-01
   4.9078507e-01
   5.5872927e-01
   5.0870758e-01
   4.6000403e-01
   4.3361252e-01
   5.3345590e-01
   5.4682014e-01
   4.4372048e-01
   3.8533414e-01
   4.0049462e-01
   4.6432781e-01
   3.9094610e-01
   4.0368063e-01
   4.2740540e-01
   4.0097767e-01
   3.8934628e-01
   4.0719988e-01
   3.6087933e-01
   3.1713134e-01
   4.1957073e-01
   3.2441687e-01
   4.2875397e-01
   3.5173529e-01
   3.2915744e-01
   3.9356155e-01
   3.8482044e-01
   2.7596276e-01
   2.5711185e-01
   2.5787717e-01
   3.2774946e-01
   3.5590430e-01
   2.8856077e-01
   2.1903232e-01
   3.0532413e-01
   3.2958092e-01
   1.9984825e-01
   3.0438100e-01
   1.7987791e-01
   2.7959180e-01
   2.7424485e-01
   2.0638241e-01
   1.8924686e-01
   2.5238529e-01
   9.9449257e-02
   1.6845132e-01
   1.7939495e-01
   1.9078788e-01
   9.4649242e-02
   5.0404486e-02
   6.3156630e-02
   1.6556409e-01
   1.9323509e-01
   8.4230909e-02
   1.8306729e-01
   5.9783091e-02
   1.9937432e-02
   5.6774526e-02
   8.1538095e-02
   8.7871681e-02
   6.5865723e-02
   2.0492302e-02
  -1.2291774e-02
  -1.8963627e-02
  -2.6899286e-02
   6.8137918e-02
   2.0464282e-02
  -4.5834453e-02
   5.2279474e-02
  -4.3184021e-02
   6.1529557e-02
   6.7371546e-03
   9.0587911e-03
  -5.1219070e-02
   4.9697755e-02
   4.5258846e-03
   1.2402810e-02
  -1.3614022e-02
   3.8620526e-02
  -7.4542857e-02
   1.6565737e-02
   6.3212107e-02
  -8.9408708e-03
   2.6644590e-02
  -3.4319489e-02
   1.8762239e-02
  -3.8610290e-02
   5.2312571e-02
   5.1720013e-02
   7.9297196e-02
  -9.7202262e-03
  -7.5295544e-03
   1.7431067e-02
   5.9832050e-02
  -8.1866465e-02
  -5.4612015e-02
   7.7464890e-02
   7.8220643e-02
  -8.2103358e-03
   5.4280688e-02
   7.4895175e-02
   3.0161619e-02
  -2.2294614e-02
  -1.6468361e-02
  -1.0683179e-02
   3.1197510e-02
  -6.0997685e-03
   7.9153522e-02
  -2.5374091e-02
  -2.8111787e-02
   6.9129040e-02
   7.9341845e-03
   4.3532416e-02
  -6.5507695e-02
  -8.1666037e-03
  -7.4261506e-02
   2.8524171e-02
   3.5563686e-02
   7.3161338e-02
   2.7953357e-02
   3.3198022e-02
   6.1770754e-02
  -5.6053222e-03
  -7.2508678e-03
   5.3454974e-02
   5.6714102e-02
  -5.4059143e-02
  -8.2831688e-02
  -7.7393403e-02
  -6.2354160e-02
  -5.7380146e-02
   2.1976274e-02
  -8.2160759e-02
  -4.8316165e-03
   3.1161461e-02
  -6.7269402e-02
  -4.6091157e-02
  -3.6832854e-02
  -5.7146568e-02
  -3.0786200e-02
   5.2582857e-02
  -3.4989967e-02
   4.8132520e-02
   9.2153701e-03
   9.5508153e-03
   4.0277936e-02
   4.7783103e-02
   6.9999930e-02
  -6.3186869e-02
   5.1354634e-02
  -5.4237742e-02
  -8.2255204e-02
  -6.5069375e-02
  -6.3960737e-02
  -6.4908057e-02
   7.6009418e-02
  -3.9600835e-02
   7.7305078e-02
   2.4125222e-02
   6.5055057e-02
  -2.3213000e-02
  -4.6067061e-02
  -5.4603616e-02
   7.9717311e-03
  -4.2764013e-02
  -3.3909023e-02
  -8.4599745e-02
   1.5278046e-02
   8.0776558e-02
   6.1093899e-02
  -8.5928386e-02
   2.3404880e-02
  -2.4571989e-02
  -6.7396769e-02
   7.1280345e-03
  -1.4595334e-02
   2.9859106e-03
   6.7428638e-02
  -6.1225993e-02
  -1.1407439e-02
  -7.7005053e-02
  -2.0775721e-02
   3.8832380e-02
  -7.0704329e-02
   2.9196459e-02
  -3.5554571e-02
   1.7212015e-02
  -6.0797087e-02
  -1.1110466e-02
  -8.5100290e-02
  -4.7320723e-02
  -4.1268622e-02
   1.9882031e-03
  -4.9754726e-02
  -2.6873847e-02
   4.3276299e-02
  -1.5084635e-02
  -7.7578930e-02
  -1.9204386e-02
  -4.4558695e-03
   5.6810757e-02
  -3.4289723e-02
   5.6194212e-02
   1.1469657e-02
  -7.7818338e-02
  -4.1908724e-02
   1.5560153e-02
  -3.5391187e-03
  -5.2624643e-02
  -4.5576219e-02
   4.8930187e-02
   2.0485831e-02
  -6.2145788e-02
   3.7743135e-02
  -1.7199932e-02
  -6.5686433e-03
   3.6197657e-02
  -1.7251602e-02
  -8.4802877e-02
  -7.4280540e-02
   1.5903235e-02
  -9.4297545e-03
   7.4500756e-02
  -7.0743773e-02
  -2.1755618e-02
   8.0327816e-03
  -6.7812606e-02
   7.0631415e-02
   2.3274162e-02
   7.0797035e-02
   2.2798460e-02
  -8.4830316e-02
  -3.2048484e-02
  -6.7779013e-02
   2.2608147e-02
  -7.6713309e-02
   3.0384733e-02
  -3.9398123e-03
  -3.3957536e-02
   2.8522287e-03
   3.6153343e-02
   5.4765886e-02
  -3.2165390e-02
  -3.2952300e-02
  -2.7071689e-02
   2.9041823e-02
   6.3053939e-02
   4.5714511e-02
   6.5632516e-02
   6.4828855e-02
  -5.7140612e-02
   6.1159614e-02
   8.0257918e-02
   4.7186247e-02
   6.5488931e-02
  -7.5542585e-02
   2.5634325e-02
  -3.0718012e-02
   2.4508781e-02
   6.6315923e-02
  -2.2066653e-02
   4.6580380e-02
  -5.7962027e-02
   3.4445215e-03
   2.2257573e-02
   3.7355747e-02
  -3.3809048e-02
  -4.1267320e-02
   7.2646692e-02
   2.0088433e-02
  -7.1043839e-02
   2.2299762e-02
  -5.3781146e-02
   4.8366344e-02
   6.3652723e-02
  -2.9061643e-02
  -6.3667653e-02
   4.6358530e-02
  -3.1675484e-02
  -4.3241966e-02
  -5.2375971e-02
  -7.5263809e-02
   9.0651717e-03
  -1.6797376e-02
   4.3677722e-02
  -2.2381450e-03
  -2.0119799e-02
  -7.6591232e-02
  -4.9998055e-02
   7.6616056e-03
  -1.5604131e-02
   7.0020205e-02
  -7.7485158e-02
  -9.8649801e-03
   6.6032016e-03
  -6.3903997e-02
   7.1506138e-03
   6.2407207e-02
  -5.2735228e-02
  -6.0140983e-02
  -7.6596600e-02
   2.8128351e-02
  -8.4066421e-02
  -3.6579694e-02
   8.2843855e-02
   4.9314163e-02
  -3.7060475e-02
   4.4202928e-02
  -4.5741467e-02
   4.5469011e-02
   9.0845476e-02
   1.0431678e-01
   1.4420574e-02
   4.5209349e-02
   8.5949140e-02
   9.7545806e-02
   6.2669183e-02
   5.3697871e-02
   4.7127716e-02
   1.9892580e-02
   9.2829859e-02
   5.2922291e-02
   1.0251853e-01
   2.0274670e-01
   1.4047932e-01
   2.2002168e-01
   8.5739424e-02
   2.5239908e-01
   1.0502520e-01
   1.5186995e-01
   2.4323506e-01
   2.1988216e-01
   2.0434658e-01
   1.8304768e-01
   1.6164096e-01
   1.9690241e-01
   1.8098309e-01
   2.1326086e-01
   1.8246630e-01
   3.1339252e-01
   3.4185424e-01
   2.1370171e-01
   3.0168734e-01
   1.8729796e-01
   2.8940862e-01
   2.9957607e-01
   1.8878150e-01
   1.8186731e-01
   2.0456355e-01
   3.2778687e-01
   2.2238941e-01
   2.6303429e-01
   2.5678051e-01
   2.5930808e-01
   2.1234247e-01
   2.1987993e-01
   2.1314262e-01
   3.0510726e-01
   1.3556801e-01
   1.8663328e-01
   2.4717331e-01
   2.0424761e-01
   1.4584400e-01
   2.4036684e-01
   9.0247766e-02
   1.2079671e-01
   2.1107511e-01
   1.6209229e-01
   1.5802218e-01
   1.1265065e-01
   4.6050467e-02
   1.7914501e-01
   1.5911800e-01
   7.3474893e-02
   1.3529351e-01
   3.8964792e-02
   3.9285851e-02
   1.0708782e-01
  -2.0672719e-02
   1.2209461e-01
  -4.9557609e-02
  -3.6300229e-03
  -5.1753382e-02
   1.2500753e-02
   6.8815871e-02
   8.6313105e-02
   1.6207209e-02
   6.0000870e-02
   1.4742378e-02
   4.4710555e-02
  -8.5803103e-02
  -4.0540613e-03
  -4.3599955e-02
  -3.3543235e-02
   8.1543322e-02
  -5.0851495e-02
   3.5757680e-03
  -4.7927879e-02
   1.1734765e-02
   8.6994297e-02
  -6.4287356e-02
   7.9400172e-02
  -6.5682270e-02
  -5.4792222e-02
   2.5583768e-02
  -6.4932834e-02
  -7.3114001e-02
   2.7805820e-02
  -8.2530339e-02
   8.4726949e-02
   6.8683633e-03
  -2.2032208e-02
   3.6102113e-02
   7.8131448e-02
  -2.0557907e-02
   3.3687621e-02
   1.7824713e-02
   4.8068254e-02
   1.6037007e-02
  -2.1622720e-02
   6.1233870e-02
  -4.7894864e-02
   5.1857825e-02
   8.6770330e-02
  -3.8189691e-02
   3.6738830e-02
   2.8751444e-02
  -1.4872271e-02
  -3.0212697e-04
   7.8430354e-02
   7.9139116e-02
   4.0675398e-02
  -2.0138331e-02
  -8.0315353e-02
   1.4482692e-02
   1.1300769e-02
  -2.5289460e-02
   6.6394469e-02
   2.1746697e-02
   2.1656835e-02
  -3.5669677e-02
  -7.4273644e-02
  -3.6025122e-02
  -4.6322387e-02
  -2.6910940e-02
   6.0856871e-02
  -5.9310568e-02
  -5.9747144e-02
   1.5121683e-03
   1.8039454e-02
  -5.9130247e-02
   2.3654389e-02
   6.0062343e-02
   4.9292672e-02
  -4.1113778e-02
  -3.2359120e-02
  -5.5323557e-02
  -9.1727424e-03
  -3.0267113e-02
  -3.8450681e-02
   7.5398931e-02
  -1.7516714e-02
  -2.1056334e-02
   1.6213775e-02
  -7.5251677e-02
  -5.2874347e-02
   3.5350460e-02
   7.4230276e-03
  -5.9948398e-02
   5.0881973e-02
  -2.3919030e-02
  -4.2851394e-03
  -8.6160558e-03
  -7.0089621e-02
  -8.9849525e-02
  -2.5170331e-02
  -1.0317922e-01
  -3.5453717e-02
  -1.7595042e-02
  -7.4644768e-03
  -1.1803961e-01
  -6.0450849e-03
  -1.0794596e-01
  -4.2692619e-02
  -5.0328623e-02
  -3.3237845e-02
  -1.7098794e-01
  -4.4954348e-02
  -1.4110743e-01
  -1.5242954e-01
  -1.7898734e-01
  -1.5142723e-01
  -2.0772579e-01
  -2.0357946e-01
  -2.1136069e-01
  -1.6245897e-01
  -1.5118348e-01
  -8.2565217e-02
  -7.2401193e-02
  -1.5013375e-01
  -1.4371177e-01
   2.5770581e-02
  -3.3000707e-02
   7.3281582e-02
   2.0752658e-01
   1.4181017e-01
   2.5848651e-01
   3.8196038e-01
   5.0667282e-01
   6.6346842e-01
   6.4499374e-01
   8.7415778e-01
   8.7437117e-01
   1.0204385e+00
   1.0487066e+00
   1.0737359e+00
   1.1318542e+00
   1.2021522e+00
   1.2368831e+00
   1.2124106e+00
   1.0418087e+00
   9.8272536e-01
   1.0454086e+00
   9.1753333e-01
   7.1331876e-01
   6.8932355e-01
   6.4768341e-01
   4.4874476e-01
   3.2488602e-01
   2.1145481e-01
   1.0877661e-01
   5.0697848e-02
   7.3532025e-03
  -1.2074676e-01
  -1.1981784e-01
  -1.3861341e-01
  -3.0105850e-01
  -2.2186777e-01
  -2.5655168e-01
  -2.9872606e-01
  -2.2240056e-01
  -3.6497304e-01
  -2.6799296e-01
  -3.1792759e-01
  -3.3566950e-01
  -2.1985418e-01
  -1.5194194e-01
  -1.7896408e-01
  -1.0654623e-01
  -1.9512418e-01
  -1.0132526e-01
  -1.6032573e-01
  -1.2345266e-01
  -1.5598383e-01
  -2.3912685e-02
   3.0648716e-02
   4.3845002e-03
   1.3332304e-02
  -1.7849985e-02
  -5.8258361e-02
  -6.0752505e-02
  -5.0315250e-02
   7.0477162e-02
  -5.5328672e-02
   1.7438428e-05
  -5.6314409e-02
  -1.4718369e-02
  -6.4180523e-02
  -2.2026805e-02
   5.1364492e-02
   5.4626997e-02
   7.0514006e-02
   7.0508145e-03
   5.5508470e-02
   3.6395799e-02
  -7.9769438e-02
  -6.1828453e-02
  -4.6567593e-02
  -4.4233590e-02
  -5.7578525e-02
  -4.6267025e-02
  -3.9211232e-02
   7.8864065e-02
  -2.6775846e-02
  -3.5393670e-02
  -1.6690051e-02
  -3.4535278e-02
   4.4934235e-02
  -2.4492924e-02
  -6.5503788e-02
   2.0463590e-02
  -2.5230638e-02
  -2.3935104e-02
  -7.5354891e-02
   6.4117478e-02
  -7.3525869e-03
  -7.3761025e-02
   7.0711388e-02
  -3.8122448e-02
   1.9886488e-02
   2.8265252e-02
  -5.2384705e-02
   8.0327395e-02
   2.8832458e-02
   7.2121910e-03
   6.4433034e-02
   9.9621992e-03
  -8.3578247e-02
  -3.0244952e-03
   5.3783522e-02
   4.1214316e-02
   1.2626517e-02
  -8.5745975e-02
   3.8118317e-02
  -8.8316343e-03
   2.7873876e-02
   4.4217773e-02
   5.3216574e-02
  -8.2223561e-02
   4.8864489e-02
   1.1761418e-02
  -7.4022753e-02
  -4.3374281e-02
  -6.4009836e-02
   1.1259081e-02
   7.1565614e-03
  -7.5279248e-02
   8.5294682e-02
  -4.3466203e-02
  -3.2223951e-02
  -3.4811277e-02
  -7.9973723e-02
   4.8724041e-03
  -4.2605820e-02
  -1.5941974e-02
   7.8149133e-02
   7.3219036e-02
  -6.6142217e-02
   1.6056326e-02
  -2.4508941e-02
   3.8297570e-02
   4.1127271e-03
  -4.1763925e-02
  -1.2085608e-03
   6.2139623e-02
   3.9188069e-02
  -5.2544368e-02
  -5.9848168e-02
  -2.2618860e-02
   6.3263560e-02
   3.2265098e-02
   2.3434976e-02
  -6.2635714e-02
  -7.3466449e-02
   6.5686262e-02
  -1.3895536e-02
  -2.1543043e-03
  -6.9283589e-03
   2.7377181e-03
  -3.9816620e-02
  -4.6874213e-02
   6.9770636e-02
   7.1370814e-02
   1.8099151e-02
  -2.3533753e-02
   1.7216859e-02
   2.9422910e-02
   6.8902727e-02
  -7.2063597e-02
   6.8123773e-03
  -1.2494788e-02
   2.0458515e-02
   1.0281494e-02
  -4.7874694e-02
  -6.9062754e-02
  -8.5572602e-02
  -7.6985059e-02
  -3.0970217e-02
   4.8804982e-02
  -2.8730374e-02
   2.0880267e-02
   8.6072633e-02
   2.5846235e-02
   6.9460515e-03
  -4.6756352e-02
   4.1881902e-02
   6.7929733e-02
   6.2833206e-02
   1.6949726e-02
   2.7024367e-02
   7.2473894e-02
  -1.1668239e-02
  -3.6714079e-02
   2.3030606e-02
  -3.4625484e-02
