Patient Number 000 Lead Number 1 Time Step .001 Data Points 6001
2.5000000e-01
2.5010000e-01
2.5020000e-01
2.5030000e-01
2.5040000e-01
2.5050000e-01
2.5060000e-01
2.5070000e-01
2.5080000e-01
2.5090000e-01
2.5100000e-01
2.5110000e-01
2.5120000e-01
2.5130000e-01
2.5140000e-01
2.5150000e-01
2.5160000e-01
2.5170000e-01
2.5180000e-01
2.5190000e-01
2.5200000e-01
2.5210000e-01
2.5220000e-01
2.5230000e-01
2.5240000e-01
2.5250000e-01
2.5260000e-01
2.5270000e-01
2.5280000e-01
2.5290000e-01
2.5300000e-01
2.5310000e-01
2.5320000e-01
2.5330000e-01
2.5340000e-01
2.5350000e-01
2.5360000e-01
2.5370000e-01
2.5380000e-01
2.5390000e-01
2.5400000e-01
2.5410000e-01
2.5420000e-01
2.5430000e-01
2.5440000e-01
2.5450000e-01
2.5460000e-01
2.5470000e-01
2.5480000e-01
2.5490000e-01
2.5500000e-01
2.5510000e-01
2.5520000e-01
2.5530000e-01
2.5540000e-01
2.5550000e-01
2.5560000e-01
2.5570000e-01
2.5580000e-01
2.5590000e-01
2.5600000e-01
2.5610000e-01
2.5620000e-01
2.5630000e-01
2.5640000e-01
2.5650000e-01
2.5660000e-01
2.5670000e-01
2.5680000e-01
2.5690000e-01
2.5700000e-01
2.5710000e-01
2.5720000e-01
2.5730000e-01
2.5740000e-01
2.5750000e-01
2.5760000e-01
2.5770000e-01
2.5780000e-01
2.5780000e-01
2.5810000e-01
2.6120000e-01
2.6590000e-01
2.7070000e-01
2.7590000e-01
2.8130000e-01
2.8710000e-01
2.9320000e-01
2.9970000e-01
3.0650000e-01
3.1360000e-01
3.2100000e-01
3.2870000e-01
3.3670000e-01
3.4490000e-01
3.5340000e-01
3.6210000e-01
3.7100000e-01
3.8000000e-01
3.8920000e-01
3.9850000e-01
4.0780000e-01
4.1720000e-01
4.2660000e-01
4.3590000e-01
4.4500000e-01
4.5400000e-01
4.6270000e-01
4.7110000e-01
4.7920000e-01
4.8670000e-01
4.9380000e-01
5.0040000e-01
5.0650000e-01
5.1200000e-01
5.1690000e-01
5.2110000e-01
5.2460000e-01
5.2750000e-01
5.2970000e-01
5.3110000e-01
5.3210000e-01
5.3180000e-01
5.3090000e-01
5.2940000e-01
5.2700000e-01
5.2410000e-01
5.2020000e-01
5.1570000e-01
5.1040000e-01
5.0450000e-01
4.9810000e-01
4.9130000e-01
4.8390000e-01
4.7620000e-01
4.6820000e-01
4.5990000e-01
4.5150000e-01
4.4290000e-01
4.3410000e-01
4.2530000e-01
4.1650000e-01
4.0770000e-01
3.9890000e-01
3.9020000e-01
3.8170000e-01
3.7330000e-01
3.6510000e-01
3.5710000e-01
3.4930000e-01
3.4180000e-01
3.3460000e-01
3.2760000e-01
3.2090000e-01
3.1470000e-01
3.0870000e-01
3.0310000e-01
2.9780000e-01
2.9290000e-01
2.8840000e-01
2.8420000e-01
2.8020000e-01
2.7660000e-01
2.7320000e-01
2.7020000e-01
2.6740000e-01
2.6650000e-01
2.6670000e-01
2.6680000e-01
2.6690000e-01
2.6700000e-01
2.6710000e-01
2.6720000e-01
2.6730000e-01
2.6740000e-01
2.6750000e-01
2.6760000e-01
2.6770000e-01
2.6780000e-01
2.6790000e-01
2.6800000e-01
2.6810000e-01
2.6820000e-01
2.6830000e-01
2.6840000e-01
2.6850000e-01
2.6860000e-01
2.6870000e-01
2.6880000e-01
2.6890000e-01
2.6900000e-01
2.6910000e-01
2.6920000e-01
2.6930000e-01
2.6940000e-01
2.6950000e-01
2.6960000e-01
2.6970000e-01
2.6980000e-01
2.6990000e-01
2.7000000e-01
2.7010000e-01
2.7020000e-01
2.7030000e-01
2.7040000e-01
2.7050000e-01
2.7060000e-01
2.7070000e-01
2.7080000e-01
2.7090000e-01
2.7100000e-01
2.7110000e-01
2.7120000e-01
2.7130000e-01
2.7140000e-01
2.7150000e-01
2.7160000e-01
2.7170000e-01
2.7180000e-01
2.7190000e-01
2.7200000e-01
2.7210000e-01
2.7220000e-01
2.7230000e-01
2.7240000e-01
2.7250000e-01
2.7260000e-01
2.7270000e-01
2.7280000e-01
2.7290000e-01
2.7300000e-01
2.7310000e-01
2.7320000e-01
2.7330000e-01
2.7340000e-01
2.7350000e-01
2.7360000e-01
2.7370000e-01
2.7380000e-01
2.7390000e-01
2.7410000e-01
2.7270000e-01
2.7050000e-01
2.6860000e-01
2.6680000e-01
2.6540000e-01
2.6400000e-01
2.6260000e-01
2.6130000e-01
2.5980000e-01
2.5820000e-01
2.5620000e-01
2.5400000e-01
2.5120000e-01
2.4770000e-01
2.4380000e-01
2.3890000e-01
2.3300000e-01
2.2560000e-01
2.1690000e-01
2.0680000e-01
1.9530000e-01
1.8270000e-01
1.6940000e-01
1.5550000e-01
1.4160000e-01
1.2810000e-01
1.1560000e-01
1.0480000e-01
9.6700000e-02
9.2000000e-02
9.1900000e-02
9.7300000e-02
1.0880000e-01
1.2740000e-01
1.5350000e-01
1.8750000e-01
2.3020000e-01
2.8170000e-01
3.4230000e-01
4.1230000e-01
4.9150000e-01
5.7900000e-01
6.7300000e-01
7.7150000e-01
8.7220000e-01
9.7280000e-01
1.0713000e+00
1.1647000e+00
1.2496000e+00
1.3233000e+00
1.3823000e+00
1.4230000e+00
1.4434000e+00
1.4436000e+00
1.4238000e+00
1.3852000e+00
1.3288000e+00
1.2565000e+00
1.1707000e+00
1.0736000e+00
9.6860000e-01
8.5900000e-01
7.4900000e-01
6.4160000e-01
5.3840000e-01
4.4160000e-01
3.5230000e-01
2.7160000e-01
2.0060000e-01
1.3980000e-01
8.9300000e-02
4.9300000e-02
1.9400000e-02
-1.1000000e-03
-1.2800000e-02
-1.6400000e-02
-1.2800000e-02
-3.5000000e-03
1.0500000e-02
2.8000000e-02
4.8300000e-02
7.0500000e-02
9.3400000e-02
1.1650000e-01
1.3890000e-01
1.6010000e-01
1.7930000e-01
1.9610000e-01
2.1100000e-01
2.2390000e-01
2.3480000e-01
2.4410000e-01
2.5180000e-01
2.5820000e-01
2.6330000e-01
2.6740000e-01
2.7070000e-01
2.7340000e-01
2.7560000e-01
2.7750000e-01
2.7930000e-01
2.8100000e-01
2.8260000e-01
2.8410000e-01
2.8460000e-01
2.8460000e-01
2.8470000e-01
2.8480000e-01
2.8490000e-01
2.8500000e-01
2.8510000e-01
2.8520000e-01
2.8530000e-01
2.8540000e-01
2.8550000e-01
2.8560000e-01
2.8570000e-01
2.8580000e-01
2.8590000e-01
2.8600000e-01
2.8610000e-01
2.8620000e-01
2.8630000e-01
2.8640000e-01
2.8650000e-01
2.8660000e-01
2.8670000e-01
2.8680000e-01
2.8690000e-01
2.8700000e-01
2.8710000e-01
2.8720000e-01
2.8730000e-01
2.8740000e-01
2.8750000e-01
2.8760000e-01
2.8770000e-01
2.8780000e-01
2.8790000e-01
2.8800000e-01
2.8810000e-01
2.8820000e-01
2.8830000e-01
2.8840000e-01
2.8850000e-01
2.8860000e-01
2.8870000e-01
2.8880000e-01
2.8890000e-01
2.8900000e-01
2.8910000e-01
2.8920000e-01
2.8930000e-01
2.8940000e-01
2.8950000e-01
2.8960000e-01
2.8970000e-01
2.8980000e-01
2.8990000e-01
2.9000000e-01
2.9010000e-01
2.9020000e-01
2.9030000e-01
2.9040000e-01
2.9050000e-01
2.9060000e-01
2.9070000e-01
2.9080000e-01
2.9090000e-01
2.9100000e-01
2.9110000e-01
2.9120000e-01
2.9130000e-01
2.9140000e-01
2.9150000e-01
2.9160000e-01
2.9170000e-01
2.9180000e-01
2.9190000e-01
2.9200000e-01
2.9210000e-01
2.9220000e-01
2.9230000e-01
2.9240000e-01
2.9250000e-01
2.9260000e-01
2.9270000e-01
2.9280000e-01
2.9290000e-01
2.9300000e-01
2.9310000e-01
2.9320000e-01
2.9330000e-01
2.9340000e-01
2.9350000e-01
2.9360000e-01
2.9370000e-01
2.9380000e-01
2.9390000e-01
2.9400000e-01
2.9410000e-01
2.9420000e-01
2.9430000e-01
2.9440000e-01
2.9450000e-01
2.9460000e-01
2.9470000e-01
2.9480000e-01
2.9490000e-01
2.9500000e-01
2.9510000e-01
2.9520000e-01
2.9530000e-01
2.9540000e-01
2.9550000e-01
2.9560000e-01
2.9570000e-01
2.9580000e-01
2.9590000e-01
2.9600000e-01
2.9610000e-01
2.9620000e-01
2.9630000e-01
2.9640000e-01
2.9650000e-01
2.9660000e-01
2.9670000e-01
2.9680000e-01
2.9690000e-01
2.9810000e-01
2.9970000e-01
3.0120000e-01
3.0290000e-01
3.0460000e-01
3.0630000e-01
3.0820000e-01
3.1020000e-01
3.1230000e-01
3.1450000e-01
3.1680000e-01
3.1920000e-01
3.2170000e-01
3.2440000e-01
3.2720000e-01
3.3010000e-01
3.3320000e-01
3.3640000e-01
3.3970000e-01
3.4320000e-01
3.4700000e-01
3.5080000e-01
3.5480000e-01
3.5910000e-01
3.6340000e-01
3.6800000e-01
3.7270000e-01
3.7760000e-01
3.8280000e-01
3.8810000e-01
3.9370000e-01
3.9940000e-01
4.0530000e-01
4.1150000e-01
4.1780000e-01
4.2440000e-01
4.3110000e-01
4.3800000e-01
4.4510000e-01
4.5230000e-01
4.5980000e-01
4.6750000e-01
4.7540000e-01
4.8340000e-01
4.9140000e-01
4.9970000e-01
5.0820000e-01
5.1680000e-01
5.2540000e-01
5.3410000e-01
5.4300000e-01
5.5200000e-01
5.6090000e-01
5.7000000e-01
5.7900000e-01
5.8810000e-01
5.9720000e-01
6.0630000e-01
6.1530000e-01
6.2420000e-01
6.3310000e-01
6.4190000e-01
6.5060000e-01
6.5910000e-01
6.6750000e-01
6.7570000e-01
6.8370000e-01
6.9150000e-01
6.9900000e-01
7.0620000e-01
7.1330000e-01
7.1990000e-01
7.2620000e-01
7.3220000e-01
7.3780000e-01
7.4310000e-01
7.4790000e-01
7.5240000e-01
7.5650000e-01
7.6010000e-01
7.6330000e-01
7.6610000e-01
7.6840000e-01
7.7030000e-01
7.7170000e-01
7.7280000e-01
7.7320000e-01
7.7560000e-01
7.7940000e-01
7.8240000e-01
7.8520000e-01
7.8730000e-01
7.8920000e-01
7.9040000e-01
7.9120000e-01
7.9170000e-01
7.9100000e-01
7.9050000e-01
7.8920000e-01
7.8750000e-01
7.8540000e-01
7.8280000e-01
7.7990000e-01
7.7640000e-01
7.7260000e-01
7.6840000e-01
7.6370000e-01
7.5880000e-01
7.5360000e-01
7.4800000e-01
7.4210000e-01
7.3580000e-01
7.2930000e-01
7.2250000e-01
7.1540000e-01
7.0810000e-01
7.0050000e-01
6.9270000e-01
6.8470000e-01
6.7660000e-01
6.6830000e-01
6.5970000e-01
6.5100000e-01
6.4220000e-01
6.3330000e-01
6.2430000e-01
6.1510000e-01
6.0590000e-01
5.9660000e-01
5.8730000e-01
5.7790000e-01
5.6860000e-01
5.5920000e-01
5.4990000e-01
5.4060000e-01
5.3130000e-01
5.2210000e-01
5.1300000e-01
5.0400000e-01
4.9520000e-01
4.8640000e-01
4.7790000e-01
4.6950000e-01
4.6130000e-01
4.5320000e-01
4.4540000e-01
4.3780000e-01
4.3020000e-01
4.2300000e-01
4.1590000e-01
4.0890000e-01
4.0220000e-01
3.9550000e-01
3.8920000e-01
3.8300000e-01
3.7700000e-01
3.7120000e-01
3.6550000e-01
3.6000000e-01
3.5460000e-01
3.4950000e-01
3.4460000e-01
3.3980000e-01
3.3500000e-01
3.3060000e-01
3.2620000e-01
3.2210000e-01
3.1800000e-01
3.1440000e-01
3.1370000e-01
3.1400000e-01
3.1400000e-01
3.1420000e-01
3.1430000e-01
3.1440000e-01
3.1450000e-01
3.1460000e-01
3.1470000e-01
3.1480000e-01
3.1490000e-01
3.1500000e-01
3.1510000e-01
3.1520000e-01
3.1530000e-01
3.1540000e-01
3.1550000e-01
3.1560000e-01
3.1570000e-01
3.1580000e-01
3.1590000e-01
3.1600000e-01
3.1610000e-01
3.1620000e-01
3.1630000e-01
3.1640000e-01
3.1650000e-01
3.1660000e-01
3.1670000e-01
3.1680000e-01
3.1690000e-01
3.1700000e-01
3.1710000e-01
3.1720000e-01
3.1730000e-01
3.1740000e-01
3.1750000e-01
3.1760000e-01
3.1770000e-01
3.1780000e-01
3.1790000e-01
3.1800000e-01
3.1810000e-01
3.1820000e-01
3.1830000e-01
3.1840000e-01
3.1850000e-01
3.1860000e-01
3.1870000e-01
3.1880000e-01
3.1890000e-01
3.1900000e-01
3.1910000e-01
3.1920000e-01
3.1930000e-01
3.1940000e-01
3.1950000e-01
3.1960000e-01
3.1970000e-01
3.1980000e-01
3.1990000e-01
3.2000000e-01
3.2010000e-01
3.2020000e-01
3.2030000e-01
3.2040000e-01
3.2050000e-01
3.2060000e-01
3.2070000e-01
3.2080000e-01
3.2090000e-01
3.2100000e-01
3.2110000e-01
3.2120000e-01
3.2130000e-01
3.2140000e-01
3.2150000e-01
3.2160000e-01
3.2170000e-01
3.2180000e-01
3.2190000e-01
3.2200000e-01
3.2210000e-01
3.2220000e-01
3.2230000e-01
3.2240000e-01
3.2250000e-01
3.2260000e-01
3.2270000e-01
3.2280000e-01
3.2290000e-01
3.2300000e-01
3.2310000e-01
3.2320000e-01
3.2330000e-01
3.2340000e-01
3.2350000e-01
3.2360000e-01
3.2370000e-01
3.2380000e-01
3.2390000e-01
3.2400000e-01
3.2410000e-01
3.2420000e-01
3.2430000e-01
3.2440000e-01
3.2450000e-01
3.2460000e-01
3.2470000e-01
3.2480000e-01
3.2490000e-01
3.2500000e-01
3.2510000e-01
3.2520000e-01
3.2530000e-01
3.2540000e-01
3.2550000e-01
3.2560000e-01
3.2570000e-01
3.2580000e-01
3.2590000e-01
3.2600000e-01
3.2610000e-01
3.2620000e-01
3.2630000e-01
3.2640000e-01
3.2650000e-01
3.2660000e-01
3.2670000e-01
3.2680000e-01
3.2690000e-01
3.2700000e-01
3.2710000e-01
3.2720000e-01
3.2730000e-01
3.2740000e-01
3.2750000e-01
3.2760000e-01
3.2770000e-01
3.2780000e-01
3.2790000e-01
3.2800000e-01
3.2810000e-01
3.2820000e-01
3.2830000e-01
3.2840000e-01
3.2850000e-01
3.2860000e-01
3.2870000e-01
3.2880000e-01
3.2890000e-01
3.2900000e-01
3.2910000e-01
3.2920000e-01
3.2930000e-01
3.2940000e-01
3.2950000e-01
3.2960000e-01
3.2970000e-01
3.2980000e-01
3.2990000e-01
3.3000000e-01
3.3010000e-01
3.3020000e-01
3.3030000e-01
3.3040000e-01
3.3050000e-01
3.3060000e-01
3.3070000e-01
3.3080000e-01
3.3090000e-01
3.3100000e-01
3.3110000e-01
3.3120000e-01
3.3130000e-01
3.3140000e-01
3.3150000e-01
3.3160000e-01
3.3170000e-01
3.3180000e-01
3.3190000e-01
3.3200000e-01
3.3210000e-01
3.3220000e-01
3.3230000e-01
3.3240000e-01
3.3250000e-01
3.3260000e-01
3.3270000e-01
3.3280000e-01
3.3290000e-01
3.3300000e-01
3.3310000e-01
3.3320000e-01
3.3330000e-01
3.3340000e-01
3.3350000e-01
3.3360000e-01
3.3370000e-01
3.3380000e-01
3.3390000e-01
3.3400000e-01
3.3410000e-01
3.3420000e-01
3.3430000e-01
3.3440000e-01
3.3450000e-01
3.3460000e-01
3.3470000e-01
3.3480000e-01
3.3490000e-01
3.3500000e-01
3.3510000e-01
3.3520000e-01
3.3530000e-01
3.3540000e-01
3.3550000e-01
3.3560000e-01
3.3570000e-01
3.3580000e-01
3.3590000e-01
3.3600000e-01
3.3610000e-01
3.3620000e-01
3.3630000e-01
3.3640000e-01
3.3650000e-01
3.3660000e-01
3.3670000e-01
3.3680000e-01
3.3680000e-01
3.3710000e-01
3.4020000e-01
3.4490000e-01
3.4970000e-01
3.5490000e-01
3.6030000e-01
3.6610000e-01
3.7220000e-01
3.7870000e-01
3.8550000e-01
3.9260000e-01
4.0000000e-01
4.0770000e-01
4.1570000e-01
4.2390000e-01
4.3240000e-01
4.4110000e-01
4.5000000e-01
4.5900000e-01
4.6820000e-01
4.7750000e-01
4.8680000e-01
4.9620000e-01
5.0560000e-01
5.1490000e-01
5.2400000e-01
5.3300000e-01
5.4170000e-01
5.5010000e-01
5.5820000e-01
5.6570000e-01
5.7280000e-01
5.7940000e-01
5.8550000e-01
5.9100000e-01
5.9590000e-01
6.0010000e-01
6.0360000e-01
6.0650000e-01
6.0870000e-01
6.1010000e-01
6.1110000e-01
6.1080000e-01
6.0990000e-01
6.0840000e-01
6.0600000e-01
6.0310000e-01
5.9920000e-01
5.9470000e-01
5.8940000e-01
5.8350000e-01
5.7710000e-01
5.7030000e-01
5.6290000e-01
5.5520000e-01
5.4720000e-01
5.3890000e-01
5.3050000e-01
5.2190000e-01
5.1310000e-01
5.0430000e-01
4.9550000e-01
4.8670000e-01
4.7790000e-01
4.6920000e-01
4.6070000e-01
4.5230000e-01
4.4410000e-01
4.3610000e-01
4.2830000e-01
4.2080000e-01
4.1360000e-01
4.0660000e-01
3.9990000e-01
3.9370000e-01
3.8770000e-01
3.8210000e-01
3.7680000e-01
3.7190000e-01
3.6740000e-01
3.6320000e-01
3.5920000e-01
3.5560000e-01
3.5220000e-01
3.4920000e-01
3.4640000e-01
3.4550000e-01
3.4570000e-01
3.4580000e-01
3.4590000e-01
3.4600000e-01
3.4610000e-01
3.4620000e-01
3.4630000e-01
3.4640000e-01
3.4650000e-01
3.4660000e-01
3.4670000e-01
3.4680000e-01
3.4690000e-01
3.4700000e-01
3.4710000e-01
3.4720000e-01
3.4730000e-01
3.4740000e-01
3.4750000e-01
3.4760000e-01
3.4770000e-01
3.4780000e-01
3.4790000e-01
3.4800000e-01
3.4810000e-01
3.4820000e-01
3.4830000e-01
3.4840000e-01
3.4850000e-01
3.4860000e-01
3.4870000e-01
3.4880000e-01
3.4890000e-01
3.4900000e-01
3.4910000e-01
3.4920000e-01
3.4930000e-01
3.4940000e-01
3.4950000e-01
3.4960000e-01
3.4970000e-01
3.4980000e-01
3.4990000e-01
3.5000000e-01
3.5010000e-01
3.5020000e-01
3.5030000e-01
3.5040000e-01
3.5050000e-01
3.5060000e-01
3.5070000e-01
3.5080000e-01
3.5090000e-01
3.5100000e-01
3.5110000e-01
3.5120000e-01
3.5130000e-01
3.5140000e-01
3.5150000e-01
3.5160000e-01
3.5170000e-01
3.5180000e-01
3.5190000e-01
3.5200000e-01
3.5210000e-01
3.5220000e-01
3.5230000e-01
3.5240000e-01
3.5250000e-01
3.5260000e-01
3.5270000e-01
3.5280000e-01
3.5290000e-01
3.5310000e-01
3.5170000e-01
3.4950000e-01
3.4760000e-01
3.4580000e-01
3.4440000e-01
3.4300000e-01
3.4160000e-01
3.4030000e-01
3.3880000e-01
3.3720000e-01
3.3520000e-01
3.3300000e-01
3.3020000e-01
3.2670000e-01
3.2280000e-01
3.1790000e-01
3.1200000e-01
3.0460000e-01
2.9590000e-01
2.8580000e-01
2.7430000e-01
2.6170000e-01
2.4840000e-01
2.3450000e-01
2.2060000e-01
2.0710000e-01
1.9460000e-01
1.8380000e-01
1.7570000e-01
1.7100000e-01
1.7090000e-01
1.7630000e-01
1.8780000e-01
2.0640000e-01
2.3250000e-01
2.6650000e-01
3.0920000e-01
3.6070000e-01
4.2130000e-01
4.9130000e-01
5.7050000e-01
6.5800000e-01
7.5200000e-01
8.5050000e-01
9.5120000e-01
1.0518000e+00
1.1503000e+00
1.2437000e+00
1.3286000e+00
1.4023000e+00
1.4613000e+00
1.5020000e+00
1.5224000e+00
1.5226000e+00
1.5028000e+00
1.4642000e+00
1.4078000e+00
1.3355000e+00
1.2497000e+00
1.1526000e+00
1.0476000e+00
9.3800000e-01
8.2800000e-01
7.2060000e-01
6.1740000e-01
5.2060000e-01
4.3130000e-01
3.5060000e-01
2.7960000e-01
2.1880000e-01
1.6830000e-01
1.2830000e-01
9.8400000e-02
7.7900000e-02
6.6200000e-02
6.2600000e-02
6.6200000e-02
7.5500000e-02
8.9500000e-02
1.0700000e-01
1.2730000e-01
1.4950000e-01
1.7240000e-01
1.9550000e-01
2.1790000e-01
2.3910000e-01
2.5830000e-01
2.7510000e-01
2.9000000e-01
3.0290000e-01
3.1380000e-01
3.2310000e-01
3.3080000e-01
3.3720000e-01
3.4230000e-01
3.4640000e-01
3.4970000e-01
3.5240000e-01
3.5460000e-01
3.5650000e-01
3.5830000e-01
3.6000000e-01
3.6160000e-01
3.6310000e-01
3.6360000e-01
3.6360000e-01
3.6370000e-01
3.6380000e-01
3.6390000e-01
3.6400000e-01
3.6410000e-01
3.6420000e-01
3.6430000e-01
3.6440000e-01
3.6450000e-01
3.6460000e-01
3.6470000e-01
3.6480000e-01
3.6490000e-01
3.6500000e-01
3.6510000e-01
3.6520000e-01
3.6530000e-01
3.6540000e-01
3.6550000e-01
3.6560000e-01
3.6570000e-01
3.6580000e-01
3.6590000e-01
3.6600000e-01
3.6610000e-01
3.6620000e-01
3.6630000e-01
3.6640000e-01
3.6650000e-01
3.6660000e-01
3.6670000e-01
3.6680000e-01
3.6690000e-01
3.6700000e-01
3.6710000e-01
3.6720000e-01
3.6730000e-01
3.6740000e-01
3.6750000e-01
3.6760000e-01
3.6770000e-01
3.6780000e-01
3.6790000e-01
3.6800000e-01
3.6810000e-01
3.6820000e-01
3.6830000e-01
3.6840000e-01
3.6850000e-01
3.6860000e-01
3.6870000e-01
3.6880000e-01
3.6890000e-01
3.6900000e-01
3.6910000e-01
3.6920000e-01
3.6930000e-01
3.6940000e-01
3.6950000e-01
3.6960000e-01
3.6970000e-01
3.6980000e-01
3.6990000e-01
3.7000000e-01
3.7010000e-01
3.7020000e-01
3.7030000e-01
3.7040000e-01
3.7050000e-01
3.7060000e-01
3.7070000e-01
3.7080000e-01
3.7090000e-01
3.7100000e-01
3.7110000e-01
3.7120000e-01
3.7130000e-01
3.7140000e-01
3.7150000e-01
3.7160000e-01
3.7170000e-01
3.7180000e-01
3.7190000e-01
3.7200000e-01
3.7210000e-01
3.7220000e-01
3.7230000e-01
3.7240000e-01
3.7250000e-01
3.7260000e-01
3.7270000e-01
3.7280000e-01
3.7290000e-01
3.7300000e-01
3.7310000e-01
3.7320000e-01
3.7330000e-01
3.7340000e-01
3.7350000e-01
3.7360000e-01
3.7370000e-01
3.7380000e-01
3.7390000e-01
3.7400000e-01
3.7410000e-01
3.7420000e-01
3.7430000e-01
3.7440000e-01
3.7450000e-01
3.7460000e-01
3.7470000e-01
3.7480000e-01
3.7490000e-01
3.7500000e-01
3.7510000e-01
3.7520000e-01
3.7530000e-01
3.7540000e-01
3.7550000e-01
3.7560000e-01
3.7570000e-01
3.7580000e-01
3.7590000e-01
3.7710000e-01
3.7870000e-01
3.8020000e-01
3.8190000e-01
3.8360000e-01
3.8530000e-01
3.8720000e-01
3.8920000e-01
3.9130000e-01
3.9350000e-01
3.9580000e-01
3.9820000e-01
4.0070000e-01
4.0340000e-01
4.0620000e-01
4.0910000e-01
4.1220000e-01
4.1540000e-01
4.1870000e-01
4.2220000e-01
4.2600000e-01
4.2980000e-01
4.3380000e-01
4.3810000e-01
4.4240000e-01
4.4700000e-01
4.5170000e-01
4.5660000e-01
4.6180000e-01
4.6710000e-01
4.7270000e-01
4.7840000e-01
4.8430000e-01
4.9050000e-01
4.9680000e-01
5.0340000e-01
5.1010000e-01
5.1700000e-01
5.2410000e-01
5.3130000e-01
5.3880000e-01
5.4650000e-01
5.5440000e-01
5.6240000e-01
5.7040000e-01
5.7870000e-01
5.8720000e-01
5.9580000e-01
6.0440000e-01
6.1310000e-01
6.2200000e-01
6.3100000e-01
6.3990000e-01
6.4900000e-01
6.5800000e-01
6.6710000e-01
6.7620000e-01
6.8530000e-01
6.9430000e-01
7.0320000e-01
7.1210000e-01
7.2090000e-01
7.2960000e-01
7.3810000e-01
7.4650000e-01
7.5470000e-01
7.6270000e-01
7.7050000e-01
7.7800000e-01
7.8520000e-01
7.9230000e-01
7.9890000e-01
8.0520000e-01
8.1120000e-01
8.1680000e-01
8.2210000e-01
8.2690000e-01
8.3140000e-01
8.3550000e-01
8.3910000e-01
8.4230000e-01
8.4510000e-01
8.4740000e-01
8.4930000e-01
8.5070000e-01
8.5180000e-01
8.5220000e-01
8.5460000e-01
8.5840000e-01
8.6140000e-01
8.6420000e-01
8.6630000e-01
8.6820000e-01
8.6940000e-01
8.7020000e-01
8.7070000e-01
8.7000000e-01
8.6950000e-01
8.6820000e-01
8.6650000e-01
8.6440000e-01
8.6180000e-01
8.5890000e-01
8.5540000e-01
8.5160000e-01
8.4740000e-01
8.4270000e-01
8.3780000e-01
8.3260000e-01
8.2700000e-01
8.2110000e-01
8.1480000e-01
8.0830000e-01
8.0150000e-01
7.9440000e-01
7.8710000e-01
7.7950000e-01
7.7170000e-01
7.6370000e-01
7.5560000e-01
7.4730000e-01
7.3870000e-01
7.3000000e-01
7.2120000e-01
7.1230000e-01
7.0330000e-01
6.9410000e-01
6.8490000e-01
6.7560000e-01
6.6630000e-01
6.5690000e-01
6.4760000e-01
6.3820000e-01
6.2890000e-01
6.1960000e-01
6.1030000e-01
6.0110000e-01
5.9200000e-01
5.8300000e-01
5.7420000e-01
5.6540000e-01
5.5690000e-01
5.4850000e-01
5.4030000e-01
5.3220000e-01
5.2440000e-01
5.1680000e-01
5.0920000e-01
5.0200000e-01
4.9490000e-01
4.8790000e-01
4.8120000e-01
4.7450000e-01
4.6820000e-01
4.6200000e-01
4.5600000e-01
4.5020000e-01
4.4450000e-01
4.3900000e-01
4.3360000e-01
4.2850000e-01
4.2360000e-01
4.1880000e-01
4.1400000e-01
4.0960000e-01
4.0520000e-01
4.0110000e-01
3.9700000e-01
3.9340000e-01
3.9270000e-01
3.9300000e-01
3.9300000e-01
3.9320000e-01
3.9330000e-01
3.9340000e-01
3.9350000e-01
3.9360000e-01
3.9370000e-01
3.9380000e-01
3.9390000e-01
3.9400000e-01
3.9410000e-01
3.9420000e-01
3.9430000e-01
3.9440000e-01
3.9450000e-01
3.9460000e-01
3.9470000e-01
3.9480000e-01
3.9490000e-01
3.9500000e-01
3.9510000e-01
3.9520000e-01
3.9530000e-01
3.9540000e-01
3.9550000e-01
3.9560000e-01
3.9570000e-01
3.9580000e-01
3.9590000e-01
3.9600000e-01
3.9610000e-01
3.9620000e-01
3.9630000e-01
3.9640000e-01
3.9650000e-01
3.9660000e-01
3.9670000e-01
3.9680000e-01
3.9690000e-01
3.9700000e-01
3.9710000e-01
3.9720000e-01
3.9730000e-01
3.9740000e-01
3.9750000e-01
3.9760000e-01
3.9770000e-01
3.9780000e-01
3.9790000e-01
3.9800000e-01
3.9810000e-01
3.9820000e-01
3.9830000e-01
3.9840000e-01
3.9850000e-01
3.9860000e-01
3.9870000e-01
3.9880000e-01
3.9890000e-01
3.9900000e-01
3.9910000e-01
3.9920000e-01
3.9930000e-01
3.9940000e-01
3.9950000e-01
3.9960000e-01
3.9970000e-01
3.9980000e-01
3.9990000e-01
4.0000000e-01
4.0010000e-01
4.0020000e-01
4.0030000e-01
4.0040000e-01
4.0050000e-01
4.0060000e-01
4.0070000e-01
4.0080000e-01
4.0090000e-01
4.0100000e-01
4.0110000e-01
4.0120000e-01
4.0130000e-01
4.0140000e-01
4.0150000e-01
4.0160000e-01
4.0170000e-01
4.0180000e-01
4.0190000e-01
4.0200000e-01
4.0210000e-01
4.0220000e-01
4.0230000e-01
4.0240000e-01
4.0250000e-01
4.0260000e-01
4.0270000e-01
4.0280000e-01
4.0290000e-01
4.0300000e-01
4.0310000e-01
4.0320000e-01
4.0330000e-01
4.0340000e-01
4.0350000e-01
4.0360000e-01
4.0370000e-01
4.0380000e-01
4.0390000e-01
4.0400000e-01
4.0410000e-01
4.0420000e-01
4.0430000e-01
4.0440000e-01
4.0450000e-01
4.0460000e-01
4.0470000e-01
4.0480000e-01
4.0490000e-01
4.0500000e-01
4.0510000e-01
4.0520000e-01
4.0530000e-01
4.0540000e-01
4.0550000e-01
4.0560000e-01
4.0570000e-01
4.0580000e-01
4.0590000e-01
4.0600000e-01
4.0610000e-01
4.0620000e-01
4.0630000e-01
4.0640000e-01
4.0650000e-01
4.0660000e-01
4.0670000e-01
4.0680000e-01
4.0690000e-01
4.0700000e-01
4.0710000e-01
4.0720000e-01
4.0730000e-01
4.0740000e-01
4.0750000e-01
4.0760000e-01
4.0770000e-01
4.0780000e-01
4.0790000e-01
4.0800000e-01
4.0810000e-01
4.0820000e-01
4.0830000e-01
4.0840000e-01
4.0850000e-01
4.0860000e-01
4.0870000e-01
4.0880000e-01
4.0890000e-01
4.0900000e-01
4.0910000e-01
4.0920000e-01
4.0930000e-01
4.0940000e-01
4.0950000e-01
4.0960000e-01
4.0970000e-01
4.0980000e-01
4.0990000e-01
4.1000000e-01
4.1010000e-01
4.1020000e-01
4.1030000e-01
4.1040000e-01
4.1050000e-01
4.1060000e-01
4.1070000e-01
4.1080000e-01
4.1090000e-01
4.1100000e-01
4.1110000e-01
4.1120000e-01
4.1130000e-01
4.1140000e-01
4.1150000e-01
4.1160000e-01
4.1170000e-01
4.1180000e-01
4.1190000e-01
4.1200000e-01
4.1210000e-01
4.1220000e-01
4.1230000e-01
4.1240000e-01
4.1250000e-01
4.1260000e-01
4.1270000e-01
4.1280000e-01
4.1290000e-01
4.1300000e-01
4.1310000e-01
4.1320000e-01
4.1330000e-01
4.1340000e-01
4.1350000e-01
4.1360000e-01
4.1370000e-01
4.1380000e-01
4.1390000e-01
4.1400000e-01
4.1410000e-01
4.1420000e-01
4.1430000e-01
4.1440000e-01
4.1450000e-01
4.1460000e-01
4.1470000e-01
4.1480000e-01
4.1490000e-01
4.1500000e-01
4.1510000e-01
4.1520000e-01
4.1530000e-01
4.1540000e-01
4.1550000e-01
4.1560000e-01
4.1570000e-01
4.1580000e-01
4.1580000e-01
4.1610000e-01
4.1920000e-01
4.2390000e-01
4.2870000e-01
4.3390000e-01
4.3930000e-01
4.4510000e-01
4.5120000e-01
4.5770000e-01
4.6450000e-01
4.7160000e-01
4.7900000e-01
4.8670000e-01
4.9470000e-01
5.0290000e-01
5.1140000e-01
5.2010000e-01
5.2900000e-01
5.3800000e-01
5.4720000e-01
5.5650000e-01
5.6580000e-01
5.7520000e-01
5.8460000e-01
5.9390000e-01
6.0300000e-01
6.1200000e-01
6.2070000e-01
6.2910000e-01
6.3720000e-01
6.4470000e-01
6.5180000e-01
6.5840000e-01
6.6450000e-01
6.7000000e-01
6.7490000e-01
6.7910000e-01
6.8260000e-01
6.8550000e-01
6.8770000e-01
6.8910000e-01
6.9010000e-01
6.8980000e-01
6.8890000e-01
6.8740000e-01
6.8500000e-01
6.8210000e-01
6.7820000e-01
6.7370000e-01
6.6840000e-01
6.6250000e-01
6.5610000e-01
6.4930000e-01
6.4190000e-01
6.3420000e-01
6.2620000e-01
6.1790000e-01
6.0950000e-01
6.0090000e-01
5.9210000e-01
5.8330000e-01
5.7450000e-01
5.6570000e-01
5.5690000e-01
5.4820000e-01
5.3970000e-01
5.3130000e-01
5.2310000e-01
5.1510000e-01
5.0730000e-01
4.9980000e-01
4.9260000e-01
4.8560000e-01
4.7890000e-01
4.7270000e-01
4.6670000e-01
4.6110000e-01
4.5580000e-01
4.5090000e-01
4.4640000e-01
4.4220000e-01
4.3820000e-01
4.3460000e-01
4.3120000e-01
4.2820000e-01
4.2540000e-01
4.2450000e-01
4.2470000e-01
4.2480000e-01
4.2490000e-01
4.2500000e-01
4.2510000e-01
4.2520000e-01
4.2530000e-01
4.2540000e-01
4.2550000e-01
4.2560000e-01
4.2570000e-01
4.2580000e-01
4.2590000e-01
4.2600000e-01
4.2610000e-01
4.2620000e-01
4.2630000e-01
4.2640000e-01
4.2650000e-01
4.2660000e-01
4.2670000e-01
4.2680000e-01
4.2690000e-01
4.2700000e-01
4.2710000e-01
4.2720000e-01
4.2730000e-01
4.2740000e-01
4.2750000e-01
4.2760000e-01
4.2770000e-01
4.2780000e-01
4.2790000e-01
4.2800000e-01
4.2810000e-01
4.2820000e-01
4.2830000e-01
4.2840000e-01
4.2850000e-01
4.2860000e-01
4.2870000e-01
4.2880000e-01
4.2890000e-01
4.2900000e-01
4.2910000e-01
4.2920000e-01
4.2930000e-01
4.2940000e-01
4.2950000e-01
4.2960000e-01
4.2970000e-01
4.2980000e-01
4.2990000e-01
4.3000000e-01
4.3010000e-01
4.3020000e-01
4.3030000e-01
4.3040000e-01
4.3050000e-01
4.3060000e-01
4.3070000e-01
4.3080000e-01
4.3090000e-01
4.3100000e-01
4.3110000e-01
4.3120000e-01
4.3130000e-01
4.3140000e-01
4.3150000e-01
4.3160000e-01
4.3170000e-01
4.3180000e-01
4.3190000e-01
4.3210000e-01
4.3070000e-01
4.2850000e-01
4.2660000e-01
4.2480000e-01
4.2340000e-01
4.2200000e-01
4.2060000e-01
4.1930000e-01
4.1780000e-01
4.1620000e-01
4.1420000e-01
4.1200000e-01
4.0920000e-01
4.0570000e-01
4.0180000e-01
3.9690000e-01
3.9100000e-01
3.8360000e-01
3.7490000e-01
3.6480000e-01
3.5330000e-01
3.4070000e-01
3.2740000e-01
3.1350000e-01
2.9960000e-01
2.8610000e-01
2.7360000e-01
2.6280000e-01
2.5470000e-01
2.5000000e-01
2.4990000e-01
2.5530000e-01
2.6680000e-01
2.8540000e-01
3.1150000e-01
3.4550000e-01
3.8820000e-01
4.3970000e-01
5.0030000e-01
5.7030000e-01
6.4950000e-01
7.3700000e-01
8.3100000e-01
9.2950000e-01
1.0302000e+00
1.1308000e+00
1.2293000e+00
1.3227000e+00
1.4076000e+00
1.4813000e+00
1.5403000e+00
1.5810000e+00
1.6014000e+00
1.6016000e+00
1.5818000e+00
1.5432000e+00
1.4868000e+00
1.4145000e+00
1.3287000e+00
1.2316000e+00
1.1266000e+00
1.0170000e+00
9.0700000e-01
7.9960000e-01
6.9640000e-01
5.9960000e-01
5.1030000e-01
4.2960000e-01
3.5860000e-01
2.9780000e-01
2.4730000e-01
2.0730000e-01
1.7740000e-01
1.5690000e-01
1.4520000e-01
1.4160000e-01
1.4520000e-01
1.5450000e-01
1.6850000e-01
1.8600000e-01
2.0630000e-01
2.2850000e-01
2.5140000e-01
2.7450000e-01
2.9690000e-01
3.1810000e-01
3.3730000e-01
3.5410000e-01
3.6900000e-01
3.8190000e-01
3.9280000e-01
4.0210000e-01
4.0980000e-01
4.1620000e-01
4.2130000e-01
4.2540000e-01
4.2870000e-01
4.3140000e-01
4.3360000e-01
4.3550000e-01
4.3730000e-01
4.3900000e-01
4.4060000e-01
4.4210000e-01
4.4260000e-01
4.4260000e-01
4.4270000e-01
4.4280000e-01
4.4290000e-01
4.4300000e-01
4.4310000e-01
4.4320000e-01
4.4330000e-01
4.4340000e-01
4.4350000e-01
4.4360000e-01
4.4370000e-01
4.4380000e-01
4.4390000e-01
4.4400000e-01
4.4410000e-01
4.4420000e-01
4.4430000e-01
4.4440000e-01
4.4450000e-01
4.4460000e-01
4.4470000e-01
4.4480000e-01
4.4490000e-01
4.4500000e-01
4.4510000e-01
4.4520000e-01
4.4530000e-01
4.4540000e-01
4.4550000e-01
4.4560000e-01
4.4570000e-01
4.4580000e-01
4.4590000e-01
4.4600000e-01
4.4610000e-01
4.4620000e-01
4.4630000e-01
4.4640000e-01
4.4650000e-01
4.4660000e-01
4.4670000e-01
4.4680000e-01
4.4690000e-01
4.4700000e-01
4.4710000e-01
4.4720000e-01
4.4730000e-01
4.4740000e-01
4.4750000e-01
4.4760000e-01
4.4770000e-01
4.4780000e-01
4.4790000e-01
4.4800000e-01
4.4810000e-01
4.4820000e-01
4.4830000e-01
4.4840000e-01
4.4850000e-01
4.4860000e-01
4.4870000e-01
4.4880000e-01
4.4890000e-01
4.4900000e-01
4.4910000e-01
4.4920000e-01
4.4930000e-01
4.4940000e-01
4.4950000e-01
4.4960000e-01
4.4970000e-01
4.4980000e-01
4.4990000e-01
4.5000000e-01
4.5010000e-01
4.5020000e-01
4.5030000e-01
4.5040000e-01
4.5050000e-01
4.5060000e-01
4.5070000e-01
4.5080000e-01
4.5090000e-01
4.5100000e-01
4.5110000e-01
4.5120000e-01
4.5130000e-01
4.5140000e-01
4.5150000e-01
4.5160000e-01
4.5170000e-01
4.5180000e-01
4.5190000e-01
4.5200000e-01
4.5210000e-01
4.5220000e-01
4.5230000e-01
4.5240000e-01
4.5250000e-01
4.5260000e-01
4.5270000e-01
4.5280000e-01
4.5290000e-01
4.5300000e-01
4.5310000e-01
4.5320000e-01
4.5330000e-01
4.5340000e-01
4.5350000e-01
4.5360000e-01
4.5370000e-01
4.5380000e-01
4.5390000e-01
4.5400000e-01
4.5410000e-01
4.5420000e-01
4.5430000e-01
4.5440000e-01
4.5450000e-01
4.5460000e-01
4.5470000e-01
4.5480000e-01
4.5490000e-01
4.5610000e-01
4.5770000e-01
4.5920000e-01
4.6090000e-01
4.6260000e-01
4.6430000e-01
4.6620000e-01
4.6820000e-01
4.7030000e-01
4.7250000e-01
4.7480000e-01
4.7720000e-01
4.7970000e-01
4.8240000e-01
4.8520000e-01
4.8810000e-01
4.9120000e-01
4.9440000e-01
4.9770000e-01
5.0120000e-01
5.0500000e-01
5.0880000e-01
5.1280000e-01
5.1710000e-01
5.2140000e-01
5.2600000e-01
5.3070000e-01
5.3560000e-01
5.4080000e-01
5.4610000e-01
5.5170000e-01
5.5740000e-01
5.6330000e-01
5.6950000e-01
5.7580000e-01
5.8240000e-01
5.8910000e-01
5.9600000e-01
6.0310000e-01
6.1030000e-01
6.1780000e-01
6.2550000e-01
6.3340000e-01
6.4140000e-01
6.4940000e-01
6.5770000e-01
6.6620000e-01
6.7480000e-01
6.8340000e-01
6.9210000e-01
7.0100000e-01
7.1000000e-01
7.1890000e-01
7.2800000e-01
7.3700000e-01
7.4610000e-01
7.5520000e-01
7.6430000e-01
7.7330000e-01
7.8220000e-01
7.9110000e-01
7.9990000e-01
8.0860000e-01
8.1710000e-01
8.2550000e-01
8.3370000e-01
8.4170000e-01
8.4950000e-01
8.5700000e-01
8.6420000e-01
8.7130000e-01
8.7790000e-01
8.8420000e-01
8.9020000e-01
8.9580000e-01
9.0110000e-01
9.0590000e-01
9.1040000e-01
9.1450000e-01
9.1810000e-01
9.2130000e-01
9.2410000e-01
9.2640000e-01
9.2830000e-01
9.2970000e-01
9.3080000e-01
9.3120000e-01
9.3360000e-01
9.3740000e-01
9.4040000e-01
9.4320000e-01
9.4530000e-01
9.4720000e-01
9.4840000e-01
9.4920000e-01
9.4970000e-01
9.4900000e-01
9.4850000e-01
9.4720000e-01
9.4550000e-01
9.4340000e-01
9.4080000e-01
9.3790000e-01
9.3440000e-01
9.3060000e-01
9.2640000e-01
9.2170000e-01
9.1680000e-01
9.1160000e-01
9.0600000e-01
9.0010000e-01
8.9380000e-01
8.8730000e-01
8.8050000e-01
8.7340000e-01
8.6610000e-01
8.5850000e-01
8.5070000e-01
8.4270000e-01
8.3460000e-01
8.2630000e-01
8.1770000e-01
8.0900000e-01
8.0020000e-01
7.9130000e-01
7.8230000e-01
7.7310000e-01
7.6390000e-01
7.5460000e-01
7.4530000e-01
7.3590000e-01
7.2660000e-01
7.1720000e-01
7.0790000e-01
6.9860000e-01
6.8930000e-01
6.8010000e-01
6.7100000e-01
6.6200000e-01
6.5320000e-01
6.4440000e-01
6.3590000e-01
6.2750000e-01
6.1930000e-01
6.1120000e-01
6.0340000e-01
5.9580000e-01
5.8820000e-01
5.8100000e-01
5.7390000e-01
5.6690000e-01
5.6020000e-01
5.5350000e-01
5.4720000e-01
5.4100000e-01
5.3500000e-01
5.2920000e-01
5.2350000e-01
5.1800000e-01
5.1260000e-01
5.0750000e-01
5.0260000e-01
4.9780000e-01
4.9300000e-01
4.8860000e-01
4.8420000e-01
4.8010000e-01
4.7600000e-01
4.7240000e-01
4.7170000e-01
4.7200000e-01
4.7200000e-01
4.7220000e-01
4.7230000e-01
4.7240000e-01
4.7250000e-01
4.7260000e-01
4.7270000e-01
4.7280000e-01
4.7290000e-01
4.7300000e-01
4.7310000e-01
4.7320000e-01
4.7330000e-01
4.7340000e-01
4.7350000e-01
4.7360000e-01
4.7370000e-01
4.7380000e-01
4.7390000e-01
4.7400000e-01
4.7410000e-01
4.7420000e-01
4.7430000e-01
4.7440000e-01
4.7450000e-01
4.7460000e-01
4.7470000e-01
4.7480000e-01
4.7490000e-01
4.7500000e-01
4.7510000e-01
4.7520000e-01
4.7530000e-01
4.7540000e-01
4.7550000e-01
4.7560000e-01
4.7570000e-01
4.7580000e-01
4.7590000e-01
4.7600000e-01
4.7610000e-01
4.7620000e-01
4.7630000e-01
4.7640000e-01
4.7650000e-01
4.7660000e-01
4.7670000e-01
4.7680000e-01
4.7690000e-01
4.7700000e-01
4.7710000e-01
4.7720000e-01
4.7730000e-01
4.7740000e-01
4.7750000e-01
4.7760000e-01
4.7770000e-01
4.7780000e-01
4.7790000e-01
4.7800000e-01
4.7810000e-01
4.7820000e-01
4.7830000e-01
4.7840000e-01
4.7850000e-01
4.7860000e-01
4.7870000e-01
4.7880000e-01
4.7890000e-01
4.7900000e-01
4.7910000e-01
4.7920000e-01
4.7930000e-01
4.7940000e-01
4.7950000e-01
4.7960000e-01
4.7970000e-01
4.7980000e-01
4.7990000e-01
4.8000000e-01
4.8010000e-01
4.8020000e-01
4.8030000e-01
4.8040000e-01
4.8050000e-01
4.8060000e-01
4.8070000e-01
4.8080000e-01
4.8090000e-01
4.8100000e-01
4.8110000e-01
4.8120000e-01
4.8130000e-01
4.8140000e-01
4.8150000e-01
4.8160000e-01
4.8170000e-01
4.8180000e-01
4.8190000e-01
4.8200000e-01
4.8210000e-01
4.8220000e-01
4.8230000e-01
4.8240000e-01
4.8250000e-01
4.8260000e-01
4.8270000e-01
4.8280000e-01
4.8290000e-01
4.8300000e-01
4.8310000e-01
4.8320000e-01
4.8330000e-01
4.8340000e-01
4.8350000e-01
4.8360000e-01
4.8370000e-01
4.8380000e-01
4.8390000e-01
4.8400000e-01
4.8410000e-01
4.8420000e-01
4.8430000e-01
4.8440000e-01
4.8450000e-01
4.8460000e-01
4.8470000e-01
4.8480000e-01
4.8490000e-01
4.8500000e-01
4.8510000e-01
4.8520000e-01
4.8530000e-01
4.8540000e-01
4.8550000e-01
4.8560000e-01
4.8570000e-01
4.8580000e-01
4.8590000e-01
4.8600000e-01
4.8610000e-01
4.8620000e-01
4.8630000e-01
4.8640000e-01
4.8650000e-01
4.8660000e-01
4.8670000e-01
4.8680000e-01
4.8690000e-01
4.8700000e-01
4.8710000e-01
4.8720000e-01
4.8730000e-01
4.8740000e-01
4.8750000e-01
4.8760000e-01
4.8770000e-01
4.8780000e-01
4.8790000e-01
4.8800000e-01
4.8810000e-01
4.8820000e-01
4.8830000e-01
4.8840000e-01
4.8850000e-01
4.8860000e-01
4.8870000e-01
4.8880000e-01
4.8890000e-01
4.8900000e-01
4.8910000e-01
4.8920000e-01
4.8930000e-01
4.8940000e-01
4.8950000e-01
4.8960000e-01
4.8970000e-01
4.8980000e-01
4.8990000e-01
4.9000000e-01
4.9010000e-01
4.9020000e-01
4.9030000e-01
4.9040000e-01
4.9050000e-01
4.9060000e-01
4.9070000e-01
4.9080000e-01
4.9090000e-01
4.9100000e-01
4.9110000e-01
4.9120000e-01
4.9130000e-01
4.9140000e-01
4.9150000e-01
4.9160000e-01
4.9170000e-01
4.9180000e-01
4.9190000e-01
4.9200000e-01
4.9210000e-01
4.9220000e-01
4.9230000e-01
4.9240000e-01
4.9250000e-01
4.9260000e-01
4.9270000e-01
4.9280000e-01
4.9290000e-01
4.9300000e-01
4.9310000e-01
4.9320000e-01
4.9330000e-01
4.9340000e-01
4.9350000e-01
4.9360000e-01
4.9370000e-01
4.9380000e-01
4.9390000e-01
4.9400000e-01
4.9410000e-01
4.9420000e-01
4.9430000e-01
4.9440000e-01
4.9450000e-01
4.9460000e-01
4.9470000e-01
4.9480000e-01
4.9480000e-01
4.9510000e-01
4.9820000e-01
5.0290000e-01
5.0770000e-01
5.1290000e-01
5.1830000e-01
5.2410000e-01
5.3020000e-01
5.3670000e-01
5.4350000e-01
5.5060000e-01
5.5800000e-01
5.6570000e-01
5.7370000e-01
5.8190000e-01
5.9040000e-01
5.9910000e-01
6.0800000e-01
6.1700000e-01
6.2620000e-01
6.3550000e-01
6.4480000e-01
6.5420000e-01
6.6360000e-01
6.7290000e-01
6.8200000e-01
6.9100000e-01
6.9970000e-01
7.0810000e-01
7.1620000e-01
7.2370000e-01
7.3080000e-01
7.3740000e-01
7.4350000e-01
7.4900000e-01
7.5390000e-01
7.5810000e-01
7.6160000e-01
7.6450000e-01
7.6670000e-01
7.6810000e-01
7.6910000e-01
7.6880000e-01
7.6790000e-01
7.6640000e-01
7.6400000e-01
7.6110000e-01
7.5720000e-01
7.5270000e-01
7.4740000e-01
7.4150000e-01
7.3510000e-01
7.2830000e-01
7.2090000e-01
7.1320000e-01
7.0520000e-01
6.9690000e-01
6.8850000e-01
6.7990000e-01
6.7110000e-01
6.6230000e-01
6.5350000e-01
6.4470000e-01
6.3590000e-01
6.2720000e-01
6.1870000e-01
6.1030000e-01
6.0210000e-01
5.9410000e-01
5.8630000e-01
5.7880000e-01
5.7160000e-01
5.6460000e-01
5.5790000e-01
5.5170000e-01
5.4570000e-01
5.4010000e-01
5.3480000e-01
5.2990000e-01
5.2540000e-01
5.2120000e-01
5.1720000e-01
5.1360000e-01
5.1020000e-01
5.0720000e-01
5.0440000e-01
5.0350000e-01
5.0370000e-01
5.0380000e-01
5.0390000e-01
5.0400000e-01
5.0410000e-01
5.0420000e-01
5.0430000e-01
5.0440000e-01
5.0450000e-01
5.0460000e-01
5.0470000e-01
5.0480000e-01
5.0490000e-01
5.0500000e-01
5.0510000e-01
5.0520000e-01
5.0530000e-01
5.0540000e-01
5.0550000e-01
5.0560000e-01
5.0570000e-01
5.0580000e-01
5.0590000e-01
5.0600000e-01
5.0610000e-01
5.0620000e-01
5.0630000e-01
5.0640000e-01
5.0650000e-01
5.0660000e-01
5.0670000e-01
5.0680000e-01
5.0690000e-01
5.0700000e-01
5.0710000e-01
5.0720000e-01
5.0730000e-01
5.0740000e-01
5.0750000e-01
5.0760000e-01
5.0770000e-01
5.0780000e-01
5.0790000e-01
5.0800000e-01
5.0810000e-01
5.0820000e-01
5.0830000e-01
5.0840000e-01
5.0850000e-01
5.0860000e-01
5.0870000e-01
5.0880000e-01
5.0890000e-01
5.0900000e-01
5.0910000e-01
5.0920000e-01
5.0930000e-01
5.0940000e-01
5.0950000e-01
5.0960000e-01
5.0970000e-01
5.0980000e-01
5.0990000e-01
5.1000000e-01
5.1010000e-01
5.1020000e-01
5.1030000e-01
5.1040000e-01
5.1050000e-01
5.1060000e-01
5.1070000e-01
5.1080000e-01
5.1090000e-01
5.1110000e-01
5.0970000e-01
5.0750000e-01
5.0560000e-01
5.0380000e-01
5.0240000e-01
5.0100000e-01
4.9960000e-01
4.9830000e-01
4.9680000e-01
4.9520000e-01
4.9320000e-01
4.9100000e-01
4.8820000e-01
4.8470000e-01
4.8080000e-01
4.7590000e-01
4.7000000e-01
4.6260000e-01
4.5390000e-01
4.4380000e-01
4.3230000e-01
4.1970000e-01
4.0640000e-01
3.9250000e-01
3.7860000e-01
3.6510000e-01
3.5260000e-01
3.4180000e-01
3.3370000e-01
3.2900000e-01
3.2890000e-01
3.3430000e-01
3.4580000e-01
3.6440000e-01
3.9050000e-01
4.2450000e-01
4.6720000e-01
5.1870000e-01
5.7930000e-01
6.4930000e-01
7.2850000e-01
8.1600000e-01
9.1000000e-01
1.0085000e+00
1.1092000e+00
1.2098000e+00
1.3083000e+00
1.4017000e+00
1.4866000e+00
1.5603000e+00
1.6193000e+00
1.6600000e+00
1.6804000e+00
1.6806000e+00
1.6608000e+00
1.6222000e+00
1.5658000e+00
1.4935000e+00
1.4077000e+00
1.3106000e+00
1.2056000e+00
1.0960000e+00
9.8600000e-01
8.7860000e-01
7.7540000e-01
6.7860000e-01
5.8930000e-01
5.0860000e-01
4.3760000e-01
3.7680000e-01
3.2630000e-01
2.8630000e-01
2.5640000e-01
2.3590000e-01
2.2420000e-01
2.2060000e-01
2.2420000e-01
2.3350000e-01
2.4750000e-01
2.6500000e-01
2.8530000e-01
3.0750000e-01
3.3040000e-01
3.5350000e-01
3.7590000e-01
3.9710000e-01
4.1630000e-01
4.3310000e-01
4.4800000e-01
4.6090000e-01
4.7180000e-01
4.8110000e-01
4.8880000e-01
4.9520000e-01
5.0030000e-01
5.0440000e-01
5.0770000e-01
5.1040000e-01
5.1260000e-01
5.1450000e-01
5.1630000e-01
5.1800000e-01
5.1960000e-01
5.2110000e-01
5.2160000e-01
5.2160000e-01
5.2170000e-01
5.2180000e-01
5.2190000e-01
5.2200000e-01
5.2210000e-01
5.2220000e-01
5.2230000e-01
5.2240000e-01
5.2250000e-01
5.2260000e-01
5.2270000e-01
5.2280000e-01
5.2290000e-01
5.2300000e-01
5.2310000e-01
5.2320000e-01
5.2330000e-01
5.2340000e-01
5.2350000e-01
5.2360000e-01
5.2370000e-01
5.2380000e-01
5.2390000e-01
5.2400000e-01
5.2410000e-01
5.2420000e-01
5.2430000e-01
5.2440000e-01
5.2450000e-01
5.2460000e-01
5.2470000e-01
5.2480000e-01
5.2490000e-01
5.2500000e-01
5.2510000e-01
5.2520000e-01
5.2530000e-01
5.2540000e-01
5.2550000e-01
5.2560000e-01
5.2570000e-01
5.2580000e-01
5.2590000e-01
5.2600000e-01
5.2610000e-01
5.2620000e-01
5.2630000e-01
5.2640000e-01
5.2650000e-01
5.2660000e-01
5.2670000e-01
5.2680000e-01
5.2690000e-01
5.2700000e-01
5.2710000e-01
5.2720000e-01
5.2730000e-01
5.2740000e-01
5.2750000e-01
5.2760000e-01
5.2770000e-01
5.2780000e-01
5.2790000e-01
5.2800000e-01
5.2810000e-01
5.2820000e-01
5.2830000e-01
5.2840000e-01
5.2850000e-01
5.2860000e-01
5.2870000e-01
5.2880000e-01
5.2890000e-01
5.2900000e-01
5.2910000e-01
5.2920000e-01
5.2930000e-01
5.2940000e-01
5.2950000e-01
5.2960000e-01
5.2970000e-01
5.2980000e-01
5.2990000e-01
5.3000000e-01
5.3010000e-01
5.3020000e-01
5.3030000e-01
5.3040000e-01
5.3050000e-01
5.3060000e-01
5.3070000e-01
5.3080000e-01
5.3090000e-01
5.3100000e-01
5.3110000e-01
5.3120000e-01
5.3130000e-01
5.3140000e-01
5.3150000e-01
5.3160000e-01
5.3170000e-01
5.3180000e-01
5.3190000e-01
5.3200000e-01
5.3210000e-01
5.3220000e-01
5.3230000e-01
5.3240000e-01
5.3250000e-01
5.3260000e-01
5.3270000e-01
5.3280000e-01
5.3290000e-01
5.3300000e-01
5.3310000e-01
5.3320000e-01
5.3330000e-01
5.3340000e-01
5.3350000e-01
5.3360000e-01
5.3370000e-01
5.3380000e-01
5.3390000e-01
5.3510000e-01
5.3670000e-01
5.3820000e-01
5.3990000e-01
5.4160000e-01
5.4330000e-01
5.4520000e-01
5.4720000e-01
5.4930000e-01
5.5150000e-01
5.5380000e-01
5.5620000e-01
5.5870000e-01
5.6140000e-01
5.6420000e-01
5.6710000e-01
5.7020000e-01
5.7340000e-01
5.7670000e-01
5.8020000e-01
5.8400000e-01
5.8780000e-01
5.9180000e-01
5.9610000e-01
6.0040000e-01
6.0500000e-01
6.0970000e-01
6.1460000e-01
6.1980000e-01
6.2510000e-01
6.3070000e-01
6.3640000e-01
6.4230000e-01
6.4850000e-01
6.5480000e-01
6.6140000e-01
6.6810000e-01
6.7500000e-01
6.8210000e-01
6.8930000e-01
6.9680000e-01
7.0450000e-01
7.1240000e-01
7.2040000e-01
7.2840000e-01
7.3670000e-01
7.4520000e-01
7.5380000e-01
7.6240000e-01
7.7110000e-01
7.8000000e-01
7.8900000e-01
7.9790000e-01
8.0700000e-01
8.1600000e-01
8.2510000e-01
8.3420000e-01
8.4330000e-01
8.5230000e-01
8.6120000e-01
8.7010000e-01
8.7890000e-01
8.8760000e-01
8.9610000e-01
9.0450000e-01
9.1270000e-01
9.2070000e-01
9.2850000e-01
9.3600000e-01
9.4320000e-01
9.5030000e-01
9.5690000e-01
9.6320000e-01
9.6920000e-01
9.7480000e-01
9.8010000e-01
9.8490000e-01
9.8940000e-01
9.9350000e-01
9.9710000e-01
1.0003000e+00
1.0031000e+00
1.0054000e+00
1.0073000e+00
1.0087000e+00
1.0098000e+00
1.0102000e+00
1.0126000e+00
1.0164000e+00
1.0194000e+00
1.0222000e+00
1.0243000e+00
1.0262000e+00
1.0274000e+00
1.0282000e+00
1.0287000e+00
1.0280000e+00
1.0275000e+00
1.0262000e+00
1.0245000e+00
1.0224000e+00
1.0198000e+00
1.0169000e+00
1.0134000e+00
1.0096000e+00
1.0054000e+00
1.0007000e+00
9.9580000e-01
9.9060000e-01
9.8500000e-01
9.7910000e-01
9.7280000e-01
9.6630000e-01
9.5950000e-01
9.5240000e-01
9.4510000e-01
9.3750000e-01
9.2970000e-01
9.2170000e-01
9.1360000e-01
9.0530000e-01
8.9670000e-01
8.8800000e-01
8.7920000e-01
8.7030000e-01
8.6130000e-01
8.5210000e-01
8.4290000e-01
8.3360000e-01
8.2430000e-01
8.1490000e-01
8.0560000e-01
7.9620000e-01
7.8690000e-01
7.7760000e-01
7.6830000e-01
7.5910000e-01
7.5000000e-01
7.4100000e-01
7.3220000e-01
7.2340000e-01
7.1490000e-01
7.0650000e-01
6.9830000e-01
6.9020000e-01
6.8240000e-01
6.7480000e-01
6.6720000e-01
6.6000000e-01
6.5290000e-01
6.4590000e-01
6.3920000e-01
6.3250000e-01
6.2620000e-01
6.2000000e-01
6.1400000e-01
6.0820000e-01
6.0250000e-01
5.9700000e-01
5.9160000e-01
5.8650000e-01
5.8160000e-01
5.7680000e-01
5.7200000e-01
5.6760000e-01
5.6320000e-01
5.5910000e-01
5.5500000e-01
5.5140000e-01
5.5070000e-01
5.5100000e-01
5.5100000e-01
5.5120000e-01
5.5130000e-01
5.5140000e-01
5.5150000e-01
5.5160000e-01
5.5170000e-01
5.5180000e-01
5.5190000e-01
5.5200000e-01
5.5210000e-01
5.5220000e-01
5.5230000e-01
5.5240000e-01
5.5250000e-01
5.5260000e-01
5.5270000e-01
5.5280000e-01
5.5290000e-01
5.5300000e-01
5.5310000e-01
5.5320000e-01
5.5330000e-01
5.5340000e-01
5.5350000e-01
5.5360000e-01
5.5370000e-01
5.5380000e-01
5.5390000e-01
5.5400000e-01
5.5410000e-01
5.5420000e-01
5.5430000e-01
5.5440000e-01
5.5450000e-01
5.5460000e-01
5.5470000e-01
5.5480000e-01
5.5490000e-01
5.5500000e-01
5.5510000e-01
5.5520000e-01
5.5530000e-01
5.5540000e-01
5.5550000e-01
5.5560000e-01
5.5570000e-01
5.5580000e-01
5.5590000e-01
5.5600000e-01
5.5610000e-01
5.5620000e-01
5.5630000e-01
5.5640000e-01
5.5650000e-01
5.5660000e-01
5.5670000e-01
5.5680000e-01
5.5690000e-01
5.5700000e-01
5.5710000e-01
5.5720000e-01
5.5730000e-01
5.5740000e-01
5.5750000e-01
5.5760000e-01
5.5770000e-01
5.5780000e-01
5.5790000e-01
5.5800000e-01
5.5810000e-01
5.5820000e-01
5.5830000e-01
5.5840000e-01
5.5850000e-01
5.5860000e-01
5.5870000e-01
5.5880000e-01
5.5890000e-01
5.5900000e-01
5.5910000e-01
5.5920000e-01
5.5930000e-01
5.5940000e-01
5.5950000e-01
5.5960000e-01
5.5970000e-01
5.5980000e-01
5.5990000e-01
5.6000000e-01
5.6010000e-01
5.6020000e-01
5.6030000e-01
5.6040000e-01
5.6050000e-01
5.6060000e-01
5.6070000e-01
5.6080000e-01
5.6090000e-01
5.6100000e-01
5.6110000e-01
5.6120000e-01
5.6130000e-01
5.6140000e-01
5.6150000e-01
5.6160000e-01
5.6170000e-01
5.6180000e-01
5.6190000e-01
5.6200000e-01
5.6210000e-01
5.6220000e-01
5.6230000e-01
5.6240000e-01
5.6250000e-01
5.6260000e-01
5.6270000e-01
5.6280000e-01
5.6290000e-01
5.6300000e-01
5.6310000e-01
5.6320000e-01
5.6330000e-01
5.6340000e-01
5.6350000e-01
5.6360000e-01
5.6370000e-01
5.6380000e-01
5.6390000e-01
5.6400000e-01
5.6410000e-01
5.6420000e-01
5.6430000e-01
5.6440000e-01
5.6450000e-01
5.6460000e-01
5.6470000e-01
5.6480000e-01
5.6490000e-01
5.6500000e-01
5.6510000e-01
5.6520000e-01
5.6530000e-01
5.6540000e-01
5.6550000e-01
5.6560000e-01
5.6570000e-01
5.6580000e-01
5.6590000e-01
5.6600000e-01
5.6610000e-01
5.6620000e-01
5.6630000e-01
5.6640000e-01
5.6650000e-01
5.6660000e-01
5.6670000e-01
5.6680000e-01
5.6690000e-01
5.6700000e-01
5.6710000e-01
5.6720000e-01
5.6730000e-01
5.6740000e-01
5.6750000e-01
5.6760000e-01
5.6770000e-01
5.6780000e-01
5.6790000e-01
5.6800000e-01
5.6810000e-01
5.6820000e-01
5.6830000e-01
5.6840000e-01
5.6850000e-01
5.6860000e-01
5.6870000e-01
5.6880000e-01
5.6890000e-01
5.6900000e-01
5.6910000e-01
5.6920000e-01
5.6930000e-01
5.6940000e-01
5.6950000e-01
5.6960000e-01
5.6970000e-01
5.6980000e-01
5.6990000e-01
5.7000000e-01
5.7010000e-01
5.7020000e-01
5.7030000e-01
5.7040000e-01
5.7050000e-01
5.7060000e-01
5.7070000e-01
5.7080000e-01
5.7090000e-01
5.7100000e-01
5.7110000e-01
5.7120000e-01
5.7130000e-01
5.7140000e-01
5.7150000e-01
5.7160000e-01
5.7170000e-01
5.7180000e-01
5.7190000e-01
5.7200000e-01
5.7210000e-01
5.7220000e-01
5.7230000e-01
5.7240000e-01
5.7250000e-01
5.7260000e-01
5.7270000e-01
5.7280000e-01
5.7290000e-01
5.7300000e-01
5.7310000e-01
5.7320000e-01
5.7330000e-01
5.7340000e-01
5.7350000e-01
5.7360000e-01
5.7370000e-01
5.7380000e-01
5.7380000e-01
5.7410000e-01
5.7720000e-01
5.8190000e-01
5.8670000e-01
5.9190000e-01
5.9730000e-01
6.0310000e-01
6.0920000e-01
6.1570000e-01
6.2250000e-01
6.2960000e-01
6.3700000e-01
6.4470000e-01
6.5270000e-01
6.6090000e-01
6.6940000e-01
6.7810000e-01
6.8700000e-01
6.9600000e-01
7.0520000e-01
7.1450000e-01
7.2380000e-01
7.3320000e-01
7.4260000e-01
7.5190000e-01
7.6100000e-01
7.7000000e-01
7.7870000e-01
7.8710000e-01
7.9520000e-01
8.0270000e-01
8.0980000e-01
8.1640000e-01
8.2250000e-01
8.2800000e-01
8.3290000e-01
8.3710000e-01
8.4060000e-01
8.4350000e-01
8.4570000e-01
8.4710000e-01
8.4810000e-01
8.4780000e-01
8.4690000e-01
8.4540000e-01
8.4300000e-01
8.4010000e-01
8.3620000e-01
8.3170000e-01
8.2640000e-01
8.2050000e-01
8.1410000e-01
8.0730000e-01
7.9990000e-01
7.9220000e-01
7.8420000e-01
7.7590000e-01
7.6750000e-01
7.5890000e-01
7.5010000e-01
7.4130000e-01
7.3250000e-01
7.2370000e-01
7.1490000e-01
7.0620000e-01
6.9770000e-01
6.8930000e-01
6.8110000e-01
6.7310000e-01
6.6530000e-01
6.5780000e-01
6.5060000e-01
6.4360000e-01
6.3690000e-01
6.3070000e-01
6.2470000e-01
6.1910000e-01
6.1380000e-01
6.0890000e-01
6.0440000e-01
6.0020000e-01
5.9620000e-01
5.9260000e-01
5.8920000e-01
5.8620000e-01
5.8340000e-01
5.8250000e-01
5.8270000e-01
5.8280000e-01
5.8290000e-01
5.8300000e-01
5.8310000e-01
5.8320000e-01
5.8330000e-01
5.8340000e-01
5.8350000e-01
5.8360000e-01
5.8370000e-01
5.8380000e-01
5.8390000e-01
5.8400000e-01
5.8410000e-01
5.8420000e-01
5.8430000e-01
5.8440000e-01
5.8450000e-01
5.8460000e-01
5.8470000e-01
5.8480000e-01
5.8490000e-01
5.8500000e-01
5.8510000e-01
5.8520000e-01
5.8530000e-01
5.8540000e-01
5.8550000e-01
5.8560000e-01
5.8570000e-01
5.8580000e-01
5.8590000e-01
5.8600000e-01
5.8610000e-01
5.8620000e-01
5.8630000e-01
5.8640000e-01
5.8650000e-01
5.8660000e-01
5.8670000e-01
5.8680000e-01
5.8690000e-01
5.8700000e-01
5.8710000e-01
5.8720000e-01
5.8730000e-01
5.8740000e-01
5.8750000e-01
5.8760000e-01
5.8770000e-01
5.8780000e-01
5.8790000e-01
5.8800000e-01
5.8810000e-01
5.8820000e-01
5.8830000e-01
5.8840000e-01
5.8850000e-01
5.8860000e-01
5.8870000e-01
5.8880000e-01
5.8890000e-01
5.8900000e-01
5.8910000e-01
5.8920000e-01
5.8930000e-01
5.8940000e-01
5.8950000e-01
5.8960000e-01
5.8970000e-01
5.8980000e-01
5.8990000e-01
5.9010000e-01
5.8870000e-01
5.8650000e-01
5.8460000e-01
5.8280000e-01
5.8140000e-01
5.8000000e-01
5.7860000e-01
5.7730000e-01
5.7580000e-01
5.7420000e-01
5.7220000e-01
5.7000000e-01
5.6720000e-01
5.6370000e-01
5.5980000e-01
5.5490000e-01
5.4900000e-01
5.4160000e-01
5.3290000e-01
5.2280000e-01
5.1130000e-01
4.9870000e-01
4.8540000e-01
4.7150000e-01
4.5760000e-01
4.4410000e-01
4.3160000e-01
4.2080000e-01
4.1270000e-01
4.0800000e-01
4.0790000e-01
4.1330000e-01
4.2480000e-01
4.4340000e-01
4.6950000e-01
5.0350000e-01
5.4620000e-01
5.9770000e-01
6.5830000e-01
7.2830000e-01
8.0750000e-01
8.9500000e-01
9.8900000e-01
1.0875000e+00
1.1882000e+00
1.2888000e+00
1.3873000e+00
1.4807000e+00
1.5656000e+00
1.6393000e+00
1.6983000e+00
1.7390000e+00
1.7594000e+00
1.7596000e+00
1.7398000e+00
1.7012000e+00
1.6448000e+00
1.5725000e+00
1.4867000e+00
1.3896000e+00
1.2846000e+00
1.1750000e+00
1.0650000e+00
9.5760000e-01
8.5440000e-01
7.5760000e-01
6.6830000e-01
5.8760000e-01
5.1660000e-01
4.5580000e-01
4.0530000e-01
3.6530000e-01
3.3540000e-01
3.1490000e-01
3.0320000e-01
2.9960000e-01
3.0320000e-01
3.1250000e-01
3.2650000e-01
3.4400000e-01
3.6430000e-01
3.8650000e-01
4.0940000e-01
4.3250000e-01
4.5490000e-01
4.7610000e-01
4.9530000e-01
5.1210000e-01
5.2700000e-01
5.3990000e-01
5.5080000e-01
5.6010000e-01
5.6780000e-01
5.7420000e-01
5.7930000e-01
5.8340000e-01
5.8670000e-01
5.8940000e-01
5.9160000e-01
5.9350000e-01
5.9530000e-01
5.9700000e-01
5.9860000e-01
6.0010000e-01
6.0060000e-01
6.0060000e-01
6.0070000e-01
6.0080000e-01
6.0090000e-01
6.0100000e-01
6.0110000e-01
6.0120000e-01
6.0130000e-01
6.0140000e-01
6.0150000e-01
6.0160000e-01
6.0170000e-01
6.0180000e-01
6.0190000e-01
6.0200000e-01
6.0210000e-01
6.0220000e-01
6.0230000e-01
6.0240000e-01
6.0250000e-01
6.0260000e-01
6.0270000e-01
6.0280000e-01
6.0290000e-01
6.0300000e-01
6.0310000e-01
6.0320000e-01
6.0330000e-01
6.0340000e-01
6.0350000e-01
6.0360000e-01
6.0370000e-01
6.0380000e-01
6.0390000e-01
6.0400000e-01
6.0410000e-01
6.0420000e-01
6.0430000e-01
6.0440000e-01
6.0450000e-01
6.0460000e-01
6.0470000e-01
6.0480000e-01
6.0490000e-01
6.0500000e-01
6.0510000e-01
6.0520000e-01
6.0530000e-01
6.0540000e-01
6.0550000e-01
6.0560000e-01
6.0570000e-01
6.0580000e-01
6.0590000e-01
6.0600000e-01
6.0610000e-01
6.0620000e-01
6.0630000e-01
6.0640000e-01
6.0650000e-01
6.0660000e-01
6.0670000e-01
6.0680000e-01
6.0690000e-01
6.0700000e-01
6.0710000e-01
6.0720000e-01
6.0730000e-01
6.0740000e-01
6.0750000e-01
6.0760000e-01
6.0770000e-01
6.0780000e-01
6.0790000e-01
6.0800000e-01
6.0810000e-01
6.0820000e-01
6.0830000e-01
6.0840000e-01
6.0850000e-01
6.0860000e-01
6.0870000e-01
6.0880000e-01
6.0890000e-01
6.0900000e-01
6.0910000e-01
6.0920000e-01
6.0930000e-01
6.0940000e-01
6.0950000e-01
6.0960000e-01
6.0970000e-01
6.0980000e-01
6.0990000e-01
6.1000000e-01
6.1010000e-01
6.1020000e-01
6.1030000e-01
6.1040000e-01
6.1050000e-01
6.1060000e-01
6.1070000e-01
6.1080000e-01
6.1090000e-01
6.1100000e-01
6.1110000e-01
6.1120000e-01
6.1130000e-01
6.1140000e-01
6.1150000e-01
6.1160000e-01
6.1170000e-01
6.1180000e-01
6.1190000e-01
6.1200000e-01
6.1210000e-01
6.1220000e-01
6.1230000e-01
6.1240000e-01
6.1250000e-01
6.1260000e-01
6.1270000e-01
6.1280000e-01
6.1290000e-01
6.1410000e-01
6.1570000e-01
6.1720000e-01
6.1890000e-01
6.2060000e-01
6.2230000e-01
6.2420000e-01
6.2620000e-01
6.2830000e-01
6.3050000e-01
6.3280000e-01
6.3520000e-01
6.3770000e-01
6.4040000e-01
6.4320000e-01
6.4610000e-01
6.4920000e-01
6.5240000e-01
6.5570000e-01
6.5920000e-01
6.6300000e-01
6.6680000e-01
6.7080000e-01
6.7510000e-01
6.7940000e-01
6.8400000e-01
6.8870000e-01
6.9360000e-01
6.9880000e-01
7.0410000e-01
7.0970000e-01
7.1540000e-01
7.2130000e-01
7.2750000e-01
7.3380000e-01
7.4040000e-01
7.4710000e-01
7.5400000e-01
7.6110000e-01
7.6830000e-01
7.7580000e-01
7.8350000e-01
7.9140000e-01
7.9940000e-01
8.0740000e-01
8.1570000e-01
8.2420000e-01
8.3280000e-01
8.4140000e-01
8.5010000e-01
8.5900000e-01
8.6800000e-01
8.7690000e-01
8.8600000e-01
8.9500000e-01
9.0410000e-01
9.1320000e-01
9.2230000e-01
9.3130000e-01
9.4020000e-01
9.4910000e-01
9.5790000e-01
9.6660000e-01
9.7510000e-01
9.8350000e-01
9.9170000e-01
9.9970000e-01
1.0075000e+00
1.0150000e+00
1.0222000e+00
1.0293000e+00
1.0359000e+00
1.0422000e+00
1.0482000e+00
1.0538000e+00
1.0591000e+00
1.0639000e+00
1.0684000e+00
1.0725000e+00
1.0761000e+00
1.0793000e+00
1.0821000e+00
1.0844000e+00
1.0863000e+00
1.0877000e+00
1.0888000e+00
1.0892000e+00
1.0916000e+00
1.0954000e+00
1.0984000e+00
1.1012000e+00
1.1033000e+00
1.1052000e+00
1.1064000e+00
1.1072000e+00
1.1077000e+00
1.1070000e+00
1.1065000e+00
1.1052000e+00
1.1035000e+00
1.1014000e+00
1.0988000e+00
1.0959000e+00
1.0924000e+00
1.0886000e+00
1.0844000e+00
1.0797000e+00
1.0748000e+00
1.0696000e+00
1.0640000e+00
1.0581000e+00
1.0518000e+00
1.0453000e+00
1.0385000e+00
1.0314000e+00
1.0241000e+00
1.0165000e+00
1.0087000e+00
1.0007000e+00
9.9260000e-01
9.8430000e-01
9.7570000e-01
9.6700000e-01
9.5820000e-01
9.4930000e-01
9.4030000e-01
9.3110000e-01
9.2190000e-01
9.1260000e-01
9.0330000e-01
8.9390000e-01
8.8460000e-01
8.7520000e-01
8.6590000e-01
8.5660000e-01
8.4730000e-01
8.3810000e-01
8.2900000e-01
8.2000000e-01
8.1120000e-01
8.0240000e-01
7.9390000e-01
7.8550000e-01
7.7730000e-01
7.6920000e-01
7.6140000e-01
7.5380000e-01
7.4620000e-01
7.3900000e-01
7.3190000e-01
7.2490000e-01
7.1820000e-01
7.1150000e-01
7.0520000e-01
6.9900000e-01
6.9300000e-01
6.8720000e-01
6.8150000e-01
6.7600000e-01
6.7060000e-01
6.6550000e-01
6.6060000e-01
6.5580000e-01
6.5100000e-01
6.4660000e-01
6.4220000e-01
6.3810000e-01
6.3400000e-01
6.3040000e-01
6.2970000e-01
6.3000000e-01
6.3000000e-01
6.3020000e-01
6.3030000e-01
6.3040000e-01
6.3050000e-01
6.3060000e-01
6.3070000e-01
6.3080000e-01
6.3090000e-01
6.3100000e-01
6.3110000e-01
6.3120000e-01
6.3130000e-01
6.3140000e-01
6.3150000e-01
6.3160000e-01
6.3170000e-01
6.3180000e-01
6.3190000e-01
6.3200000e-01
6.3210000e-01
6.3220000e-01
6.3230000e-01
6.3240000e-01
6.3250000e-01
6.3260000e-01
6.3270000e-01
6.3280000e-01
6.3290000e-01
6.3300000e-01
6.3310000e-01
6.3320000e-01
6.3330000e-01
6.3340000e-01
6.3350000e-01
6.3360000e-01
6.3370000e-01
6.3380000e-01
6.3390000e-01
6.3400000e-01
6.3410000e-01
6.3420000e-01
6.3430000e-01
6.3440000e-01
6.3450000e-01
6.3460000e-01
6.3470000e-01
6.3480000e-01
6.3490000e-01
6.3500000e-01
6.3510000e-01
6.3520000e-01
6.3530000e-01
6.3540000e-01
6.3550000e-01
6.3560000e-01
6.3570000e-01
6.3580000e-01
6.3590000e-01
6.3600000e-01
6.3610000e-01
6.3620000e-01
6.3630000e-01
6.3640000e-01
6.3650000e-01
6.3660000e-01
6.3670000e-01
6.3680000e-01
6.3690000e-01
6.3700000e-01
6.3710000e-01
6.3720000e-01
6.3730000e-01
6.3740000e-01
6.3750000e-01
6.3760000e-01
6.3770000e-01
6.3780000e-01
6.3790000e-01
6.3800000e-01
6.3810000e-01
6.3820000e-01
6.3830000e-01
6.3840000e-01
6.3850000e-01
6.3860000e-01
6.3870000e-01
6.3880000e-01
6.3890000e-01
6.3900000e-01
6.3910000e-01
6.3920000e-01
6.3930000e-01
6.3940000e-01
6.3950000e-01
6.3960000e-01
6.3970000e-01
6.3980000e-01
6.3990000e-01
6.4000000e-01
6.4010000e-01
6.4020000e-01
6.4030000e-01
6.4040000e-01
6.4050000e-01
6.4060000e-01
6.4070000e-01
6.4080000e-01
6.4090000e-01
6.4100000e-01
6.4110000e-01
6.4120000e-01
6.4130000e-01
6.4140000e-01
6.4150000e-01
6.4160000e-01
6.4170000e-01
6.4180000e-01
6.4190000e-01
6.4200000e-01
6.4210000e-01
6.4220000e-01
6.4230000e-01
6.4240000e-01
6.4250000e-01
6.4260000e-01
6.4270000e-01
6.4280000e-01
6.4290000e-01
6.4300000e-01
6.4310000e-01
6.4320000e-01
6.4330000e-01
6.4340000e-01
6.4350000e-01
6.4360000e-01
6.4370000e-01
6.4380000e-01
6.4390000e-01
6.4400000e-01
6.4410000e-01
6.4420000e-01
6.4430000e-01
6.4440000e-01
6.4450000e-01
6.4460000e-01
6.4470000e-01
6.4480000e-01
6.4490000e-01
6.4500000e-01
6.4510000e-01
6.4520000e-01
6.4530000e-01
6.4540000e-01
6.4550000e-01
6.4560000e-01
6.4570000e-01
6.4580000e-01
6.4590000e-01
6.4600000e-01
6.4610000e-01
6.4620000e-01
6.4630000e-01
6.4640000e-01
6.4650000e-01
6.4660000e-01
6.4670000e-01
6.4680000e-01
6.4690000e-01
6.4700000e-01
6.4710000e-01
6.4720000e-01
6.4730000e-01
6.4740000e-01
6.4750000e-01
6.4760000e-01
6.4770000e-01
6.4780000e-01
6.4790000e-01
6.4800000e-01
6.4810000e-01
6.4820000e-01
6.4830000e-01
6.4840000e-01
6.4850000e-01
6.4860000e-01
6.4870000e-01
6.4880000e-01
6.4890000e-01
6.4900000e-01
6.4910000e-01
6.4920000e-01
6.4930000e-01
6.4940000e-01
6.4950000e-01
6.4960000e-01
6.4970000e-01
6.4980000e-01
6.4990000e-01
6.5000000e-01
6.5010000e-01
6.5020000e-01
6.5030000e-01
6.5040000e-01
6.5050000e-01
6.5060000e-01
6.5070000e-01
6.5080000e-01
6.5090000e-01
6.5100000e-01
6.5110000e-01
6.5120000e-01
6.5130000e-01
6.5140000e-01
6.5150000e-01
6.5160000e-01
6.5170000e-01
6.5180000e-01
6.5190000e-01
6.5200000e-01
6.5210000e-01
6.5220000e-01
6.5230000e-01
6.5240000e-01
6.5250000e-01
6.5260000e-01
6.5270000e-01
6.5280000e-01
6.5280000e-01
6.5310000e-01
6.5620000e-01
6.6090000e-01
6.6570000e-01
6.7090000e-01
6.7630000e-01
6.8210000e-01
6.8820000e-01
6.9470000e-01
7.0150000e-01
7.0860000e-01
7.1600000e-01
7.2370000e-01
7.3170000e-01
7.3990000e-01
7.4840000e-01
7.5710000e-01
7.6600000e-01
7.7500000e-01
7.8420000e-01
7.9350000e-01
8.0280000e-01
8.1220000e-01
8.2160000e-01
8.3090000e-01
8.4000000e-01
8.4900000e-01
8.5770000e-01
8.6610000e-01
8.7420000e-01
8.8170000e-01
8.8880000e-01
8.9540000e-01
9.0150000e-01
9.0700000e-01
9.1190000e-01
9.1610000e-01
9.1960000e-01
9.2250000e-01
9.2470000e-01
9.2610000e-01
9.2710000e-01
9.2680000e-01
9.2590000e-01
9.2440000e-01
9.2200000e-01
9.1910000e-01
9.1520000e-01
9.1070000e-01
9.0540000e-01
8.9950000e-01
8.9310000e-01
8.8630000e-01
8.7890000e-01
8.7120000e-01
8.6320000e-01
8.5490000e-01
8.4650000e-01
8.3790000e-01
8.2910000e-01
8.2030000e-01
8.1150000e-01
8.0270000e-01
7.9390000e-01
7.8520000e-01
7.7670000e-01
7.6830000e-01
7.6010000e-01
7.5210000e-01
7.4430000e-01
7.3680000e-01
7.2960000e-01
7.2260000e-01
7.1590000e-01
7.0970000e-01
7.0370000e-01
6.9810000e-01
6.9280000e-01
6.8790000e-01
6.8340000e-01
6.7920000e-01
6.7520000e-01
6.7160000e-01
6.6820000e-01
6.6520000e-01
6.6240000e-01
6.6150000e-01
6.6170000e-01
6.6180000e-01
6.6190000e-01
6.6200000e-01
6.6210000e-01
6.6220000e-01
6.6230000e-01
6.6240000e-01
6.6250000e-01
6.6260000e-01
6.6270000e-01
6.6280000e-01
6.6290000e-01
6.6300000e-01
6.6310000e-01
6.6320000e-01
6.6330000e-01
6.6340000e-01
6.6350000e-01
6.6360000e-01
6.6370000e-01
6.6380000e-01
6.6390000e-01
6.6400000e-01
6.6410000e-01
6.6420000e-01
6.6430000e-01
6.6440000e-01
6.6450000e-01
6.6460000e-01
6.6470000e-01
6.6480000e-01
6.6490000e-01
6.6500000e-01
6.6510000e-01
6.6520000e-01
6.6530000e-01
6.6540000e-01
6.6550000e-01
6.6560000e-01
6.6570000e-01
6.6580000e-01
6.6590000e-01
6.6600000e-01
6.6610000e-01
6.6620000e-01
6.6630000e-01
6.6640000e-01
6.6650000e-01
6.6660000e-01
6.6670000e-01
6.6680000e-01
6.6690000e-01
6.6700000e-01
6.6710000e-01
6.6720000e-01
6.6730000e-01
6.6740000e-01
6.6750000e-01
6.6760000e-01
6.6770000e-01
6.6780000e-01
6.6790000e-01
6.6800000e-01
6.6810000e-01
6.6820000e-01
6.6830000e-01
6.6840000e-01
6.6850000e-01
6.6860000e-01
6.6870000e-01
6.6880000e-01
6.6890000e-01
6.6910000e-01
6.6770000e-01
6.6550000e-01
6.6360000e-01
6.6180000e-01
6.6040000e-01
6.5900000e-01
6.5760000e-01
6.5630000e-01
6.5480000e-01
6.5320000e-01
6.5120000e-01
6.4900000e-01
6.4620000e-01
6.4270000e-01
6.3880000e-01
6.3390000e-01
6.2800000e-01
6.2060000e-01
6.1190000e-01
6.0180000e-01
5.9030000e-01
5.7770000e-01
5.6440000e-01
5.5050000e-01
5.3660000e-01
5.2310000e-01
5.1060000e-01
4.9980000e-01
4.9170000e-01
4.8700000e-01
4.8690000e-01
4.9230000e-01
5.0380000e-01
5.2240000e-01
5.4850000e-01
5.8250000e-01
6.2520000e-01
6.7670000e-01
7.3730000e-01
8.0730000e-01
8.8650000e-01
9.7400000e-01
1.0680000e+00
1.1665000e+00
1.2672000e+00
1.3678000e+00
1.4663000e+00
1.5597000e+00
1.6446000e+00
1.7183000e+00
1.7773000e+00
1.8180000e+00
1.8384000e+00
1.8386000e+00
1.8188000e+00
1.7802000e+00
1.7238000e+00
1.6515000e+00
1.5657000e+00
1.4686000e+00
1.3636000e+00
1.2540000e+00
1.1440000e+00
1.0366000e+00
9.3340000e-01
8.3660000e-01
7.4730000e-01
6.6660000e-01
5.9560000e-01
5.3480000e-01
4.8430000e-01
4.4430000e-01
4.1440000e-01
3.9390000e-01
3.8220000e-01
3.7860000e-01
3.8220000e-01
3.9150000e-01
4.0550000e-01
4.2300000e-01
4.4330000e-01
4.6550000e-01
4.8840000e-01
5.1150000e-01
5.3390000e-01
5.5510000e-01
5.7430000e-01
5.9110000e-01
6.0600000e-01
6.1890000e-01
6.2980000e-01
6.3910000e-01
6.4680000e-01
6.5320000e-01
6.5830000e-01
6.6240000e-01
6.6570000e-01
6.6840000e-01
6.7060000e-01
6.7250000e-01
6.7430000e-01
6.7600000e-01
6.7760000e-01
6.7910000e-01
6.7960000e-01
6.7960000e-01
6.7970000e-01
6.7980000e-01
6.7990000e-01
6.8000000e-01
6.8010000e-01
6.8020000e-01
6.8030000e-01
6.8040000e-01
6.8050000e-01
6.8060000e-01
6.8070000e-01
6.8080000e-01
6.8090000e-01
6.8100000e-01
6.8110000e-01
6.8120000e-01
6.8130000e-01
6.8140000e-01
6.8150000e-01
6.8160000e-01
6.8170000e-01
6.8180000e-01
6.8190000e-01
6.8200000e-01
6.8210000e-01
6.8220000e-01
6.8230000e-01
6.8240000e-01
6.8250000e-01
6.8260000e-01
6.8270000e-01
6.8280000e-01
6.8290000e-01
6.8300000e-01
6.8310000e-01
6.8320000e-01
6.8330000e-01
6.8340000e-01
6.8350000e-01
6.8360000e-01
6.8370000e-01
6.8380000e-01
6.8390000e-01
6.8400000e-01
6.8410000e-01
6.8420000e-01
6.8430000e-01
6.8440000e-01
6.8450000e-01
6.8460000e-01
6.8470000e-01
6.8480000e-01
6.8490000e-01
6.8500000e-01
6.8510000e-01
6.8520000e-01
6.8530000e-01
6.8540000e-01
6.8550000e-01
6.8560000e-01
6.8570000e-01
6.8580000e-01
6.8590000e-01
6.8600000e-01
6.8610000e-01
6.8620000e-01
6.8630000e-01
6.8640000e-01
6.8650000e-01
6.8660000e-01
6.8670000e-01
6.8680000e-01
6.8690000e-01
6.8700000e-01
6.8710000e-01
6.8720000e-01
6.8730000e-01
6.8740000e-01
6.8750000e-01
6.8760000e-01
6.8770000e-01
6.8780000e-01
6.8790000e-01
6.8800000e-01
6.8810000e-01
6.8820000e-01
6.8830000e-01
6.8840000e-01
6.8850000e-01
6.8860000e-01
6.8870000e-01
6.8880000e-01
6.8890000e-01
6.8900000e-01
6.8910000e-01
6.8920000e-01
6.8930000e-01
6.8940000e-01
6.8950000e-01
6.8960000e-01
6.8970000e-01
6.8980000e-01
6.8990000e-01
6.9000000e-01
6.9010000e-01
6.9020000e-01
6.9030000e-01
6.9040000e-01
6.9050000e-01
6.9060000e-01
6.9070000e-01
6.9080000e-01
6.9090000e-01
6.9100000e-01
6.9110000e-01
6.9120000e-01
6.9130000e-01
6.9140000e-01
6.9150000e-01
6.9160000e-01
6.9170000e-01
6.9180000e-01
6.9190000e-01
6.9310000e-01
6.9470000e-01
6.9620000e-01
6.9790000e-01
6.9960000e-01
7.0130000e-01
7.0320000e-01
7.0520000e-01
7.0730000e-01
7.0950000e-01
7.1180000e-01
7.1420000e-01
7.1670000e-01
7.1940000e-01
7.2220000e-01
7.2510000e-01
7.2820000e-01
7.3140000e-01
7.3470000e-01
7.3820000e-01
7.4200000e-01
7.4580000e-01
7.4980000e-01
7.5410000e-01
7.5840000e-01
7.6300000e-01
7.6770000e-01
7.7260000e-01
7.7780000e-01
7.8310000e-01
7.8870000e-01
7.9440000e-01
8.0030000e-01
8.0650000e-01
8.1280000e-01
8.1940000e-01
8.2610000e-01
8.3300000e-01
8.4010000e-01
8.4730000e-01
8.5480000e-01
8.6250000e-01
8.7040000e-01
8.7840000e-01
8.8640000e-01
8.9470000e-01
9.0320000e-01
9.1180000e-01
9.2040000e-01
9.2910000e-01
9.3800000e-01
9.4700000e-01
9.5590000e-01
9.6500000e-01
9.7400000e-01
9.8310000e-01
9.9220000e-01
1.0013000e+00
1.0103000e+00
1.0192000e+00
1.0281000e+00
1.0369000e+00
1.0456000e+00
1.0541000e+00
1.0625000e+00
1.0707000e+00
1.0787000e+00
1.0865000e+00
1.0940000e+00
1.1012000e+00
1.1083000e+00
1.1149000e+00
1.1212000e+00
1.1272000e+00
1.1328000e+00
1.1381000e+00
1.1429000e+00
1.1474000e+00
1.1515000e+00
1.1551000e+00
1.1583000e+00
1.1611000e+00
1.1634000e+00
1.1653000e+00
1.1667000e+00
1.1678000e+00
1.1682000e+00
1.1706000e+00
1.1744000e+00
1.1774000e+00
1.1802000e+00
1.1823000e+00
1.1842000e+00
1.1854000e+00
1.1862000e+00
1.1867000e+00
1.1860000e+00
1.1855000e+00
1.1842000e+00
1.1825000e+00
1.1804000e+00
1.1778000e+00
1.1749000e+00
1.1714000e+00
1.1676000e+00
1.1634000e+00
1.1587000e+00
1.1538000e+00
1.1486000e+00
1.1430000e+00
1.1371000e+00
1.1308000e+00
1.1243000e+00
1.1175000e+00
1.1104000e+00
1.1031000e+00
1.0955000e+00
1.0877000e+00
1.0797000e+00
1.0716000e+00
1.0633000e+00
1.0547000e+00
1.0460000e+00
1.0372000e+00
1.0283000e+00
1.0193000e+00
1.0101000e+00
1.0009000e+00
9.9160000e-01
9.8230000e-01
9.7290000e-01
9.6360000e-01
9.5420000e-01
9.4490000e-01
9.3560000e-01
9.2630000e-01
9.1710000e-01
9.0800000e-01
8.9900000e-01
8.9020000e-01
8.8140000e-01
8.7290000e-01
8.6450000e-01
8.5630000e-01
8.4820000e-01
8.4040000e-01
8.3280000e-01
8.2520000e-01
8.1800000e-01
8.1090000e-01
8.0390000e-01
7.9720000e-01
7.9050000e-01
7.8420000e-01
7.7800000e-01
7.7200000e-01
7.6620000e-01
7.6050000e-01
7.5500000e-01
7.4960000e-01
7.4450000e-01
7.3960000e-01
7.3480000e-01
7.3000000e-01
7.2560000e-01
7.2120000e-01
7.1710000e-01
7.1300000e-01
7.0940000e-01
7.0870000e-01
7.0900000e-01
7.0900000e-01
7.0920000e-01
7.0930000e-01
7.0940000e-01
7.0950000e-01
7.0960000e-01
7.0970000e-01
7.0980000e-01
7.0990000e-01
7.1000000e-01
7.1010000e-01
7.1020000e-01
7.1030000e-01
7.1040000e-01
7.1050000e-01
7.1060000e-01
7.1070000e-01
7.1080000e-01
7.1090000e-01
7.1100000e-01
7.1110000e-01
7.1120000e-01
7.1130000e-01
7.1140000e-01
7.1150000e-01
7.1160000e-01
7.1170000e-01
7.1180000e-01
7.1190000e-01
7.1200000e-01
7.1210000e-01
7.1220000e-01
7.1230000e-01
7.1240000e-01
7.1250000e-01
7.1260000e-01
7.1270000e-01
7.1280000e-01
7.1290000e-01
7.1300000e-01
7.1310000e-01
7.1320000e-01
7.1330000e-01
7.1340000e-01
7.1350000e-01
7.1360000e-01
7.1370000e-01
7.1380000e-01
7.1390000e-01
7.1400000e-01
7.1410000e-01
7.1420000e-01
7.1430000e-01
7.1440000e-01
7.1450000e-01
7.1460000e-01
7.1470000e-01
7.1480000e-01
7.1490000e-01
7.1500000e-01
7.1510000e-01
7.1520000e-01
7.1530000e-01
7.1540000e-01
7.1550000e-01
7.1560000e-01
7.1570000e-01
7.1580000e-01
7.1590000e-01
7.1600000e-01
7.1610000e-01
7.1620000e-01
7.1630000e-01
7.1640000e-01
7.1650000e-01
7.1660000e-01
7.1670000e-01
7.1680000e-01
7.1690000e-01
7.1700000e-01
7.1710000e-01
7.1720000e-01
7.1730000e-01
7.1740000e-01
7.1750000e-01
7.1760000e-01
7.1770000e-01
7.1780000e-01
7.1790000e-01
7.1800000e-01
7.1810000e-01
7.1820000e-01
7.1830000e-01
7.1840000e-01
7.1850000e-01
7.1860000e-01
7.1870000e-01
7.1880000e-01
7.1890000e-01
7.1900000e-01
7.1910000e-01
7.1920000e-01
7.1930000e-01
7.1940000e-01
7.1950000e-01
7.1960000e-01
7.1970000e-01
7.1980000e-01
7.1990000e-01
7.2000000e-01
7.2010000e-01
7.2020000e-01
7.2030000e-01
7.2040000e-01
7.2050000e-01
7.2060000e-01
7.2070000e-01
7.2080000e-01
7.2090000e-01
7.2100000e-01
7.2110000e-01
7.2120000e-01
7.2130000e-01
7.2140000e-01
7.2150000e-01
7.2160000e-01
7.2170000e-01
7.2180000e-01
7.2190000e-01
7.2200000e-01
7.2210000e-01
7.2220000e-01
7.2230000e-01
7.2240000e-01
7.2250000e-01
7.2260000e-01
7.2270000e-01
7.2280000e-01
7.2290000e-01
7.2300000e-01
7.2310000e-01
7.2320000e-01
7.2330000e-01
7.2340000e-01
7.2350000e-01
7.2360000e-01
7.2370000e-01
7.2380000e-01
7.2390000e-01
7.2400000e-01
7.2410000e-01
7.2420000e-01
7.2430000e-01
7.2440000e-01
7.2450000e-01
7.2460000e-01
7.2470000e-01
7.2480000e-01
7.2490000e-01
7.2500000e-01
7.2510000e-01
7.2520000e-01
7.2530000e-01
7.2540000e-01
7.2550000e-01
7.2560000e-01
7.2570000e-01
7.2580000e-01
7.2590000e-01
7.2600000e-01
7.2610000e-01
7.2620000e-01
7.2630000e-01
7.2640000e-01
7.2650000e-01
7.2660000e-01
7.2670000e-01
7.2680000e-01
7.2690000e-01
7.2700000e-01
7.2710000e-01
7.2720000e-01
7.2730000e-01
7.2740000e-01
7.2750000e-01
7.2760000e-01
7.2770000e-01
7.2780000e-01
7.2790000e-01
7.2800000e-01
7.2810000e-01
7.2820000e-01
7.2830000e-01
7.2840000e-01
7.2850000e-01
7.2860000e-01
7.2870000e-01
7.2880000e-01
7.2890000e-01
7.2900000e-01
7.2910000e-01
7.2920000e-01
7.2930000e-01
7.2940000e-01
7.2950000e-01
7.2960000e-01
7.2970000e-01
7.2980000e-01
7.2990000e-01
7.3000000e-01
7.3010000e-01
7.3020000e-01
7.3030000e-01
7.3040000e-01
7.3050000e-01
7.3060000e-01
7.3070000e-01
7.3080000e-01
7.3090000e-01
7.3100000e-01
7.3110000e-01
7.3120000e-01
7.3130000e-01
7.3140000e-01
7.3150000e-01
7.3160000e-01
7.3170000e-01
7.3180000e-01
7.3180000e-01
7.3210000e-01
7.3520000e-01
7.3990000e-01
7.4470000e-01
7.4990000e-01
7.5530000e-01
7.6110000e-01
7.6720000e-01
7.7370000e-01
7.8050000e-01
7.8760000e-01
7.9500000e-01
8.0270000e-01
8.1070000e-01
8.1890000e-01
8.2740000e-01
8.3610000e-01
8.4500000e-01
8.5400000e-01
8.6320000e-01
8.7250000e-01
8.8180000e-01
8.9120000e-01
9.0060000e-01
9.0990000e-01
9.1900000e-01
9.2800000e-01
9.3670000e-01
9.4510000e-01
9.5320000e-01
9.6070000e-01
9.6780000e-01
9.7440000e-01
9.8050000e-01
9.8600000e-01
9.9090000e-01
9.9510000e-01
9.9860000e-01
1.0015000e+00
1.0037000e+00
1.0051000e+00
1.0061000e+00
1.0058000e+00
1.0049000e+00
1.0034000e+00
1.0010000e+00
9.9810000e-01
9.9420000e-01
9.8970000e-01
9.8440000e-01
9.7850000e-01
9.7210000e-01
9.6530000e-01
9.5790000e-01
9.5020000e-01
9.4220000e-01
9.3390000e-01
9.2550000e-01
9.1690000e-01
9.0810000e-01
8.9930000e-01
8.9050000e-01
8.8170000e-01
8.7290000e-01
8.6420000e-01
8.5570000e-01
8.4730000e-01
8.3910000e-01
8.3110000e-01
8.2330000e-01
8.1580000e-01
8.0860000e-01
8.0160000e-01
7.9490000e-01
7.8870000e-01
7.8270000e-01
7.7710000e-01
7.7180000e-01
7.6690000e-01
7.6240000e-01
7.5820000e-01
7.5420000e-01
7.5060000e-01
7.4720000e-01
7.4420000e-01
7.4140000e-01
7.4050000e-01
7.4070000e-01
7.4080000e-01
7.4090000e-01
7.4100000e-01
7.4110000e-01
7.4120000e-01
7.4130000e-01
7.4140000e-01
7.4150000e-01
7.4160000e-01
7.4170000e-01
7.4180000e-01
7.4190000e-01
7.4200000e-01
7.4210000e-01
7.4220000e-01
7.4230000e-01
7.4240000e-01
7.4250000e-01
7.4260000e-01
7.4270000e-01
7.4280000e-01
7.4290000e-01
7.4300000e-01
7.4310000e-01
7.4320000e-01
7.4330000e-01
7.4340000e-01
7.4350000e-01
7.4360000e-01
7.4370000e-01
7.4380000e-01
7.4390000e-01
7.4400000e-01
7.4410000e-01
7.4420000e-01
7.4430000e-01
7.4440000e-01
7.4450000e-01
7.4460000e-01
7.4470000e-01
7.4480000e-01
7.4490000e-01
7.4500000e-01
7.4510000e-01
7.4520000e-01
7.4530000e-01
7.4540000e-01
7.4550000e-01
7.4560000e-01
7.4570000e-01
7.4580000e-01
7.4590000e-01
7.4600000e-01
7.4610000e-01
7.4620000e-01
7.4630000e-01
7.4640000e-01
7.4650000e-01
7.4660000e-01
7.4670000e-01
7.4680000e-01
7.4690000e-01
7.4700000e-01
7.4710000e-01
7.4720000e-01
7.4730000e-01
7.4740000e-01
7.4750000e-01
7.4760000e-01
7.4770000e-01
7.4780000e-01
7.4790000e-01
7.4810000e-01
7.4670000e-01
7.4450000e-01
7.4260000e-01
7.4080000e-01
7.3940000e-01
7.3800000e-01
7.3660000e-01
7.3530000e-01
7.3380000e-01
7.3220000e-01
7.3020000e-01
7.2800000e-01
7.2520000e-01
7.2170000e-01
7.1780000e-01
7.1290000e-01
7.0700000e-01
6.9960000e-01
6.9090000e-01
6.8080000e-01
6.6930000e-01
6.5670000e-01
6.4340000e-01
6.2950000e-01
6.1560000e-01
6.0210000e-01
5.8960000e-01
5.7880000e-01
5.7070000e-01
5.6600000e-01
5.6590000e-01
5.7130000e-01
5.8280000e-01
6.0140000e-01
6.2750000e-01
6.6150000e-01
7.0420000e-01
7.5570000e-01
8.1630000e-01
8.8630000e-01
9.6550000e-01
1.0530000e+00
1.1470000e+00
1.2455000e+00
1.3462000e+00
1.4468000e+00
1.5453000e+00
1.6387000e+00
1.7236000e+00
1.7973000e+00
1.8563000e+00
1.8970000e+00
1.9174000e+00
1.9176000e+00
1.8978000e+00
1.8592000e+00
1.8028000e+00
1.7305000e+00
1.6447000e+00
1.5476000e+00
1.4426000e+00
1.3330000e+00
1.2230000e+00
1.1156000e+00
1.0124000e+00
9.1560000e-01
8.2630000e-01
7.4560000e-01
6.7460000e-01
6.1380000e-01
5.6330000e-01
5.2330000e-01
4.9340000e-01
4.7290000e-01
4.6120000e-01
4.5760000e-01
4.6120000e-01
4.7050000e-01
4.8450000e-01
5.0200000e-01
5.2230000e-01
5.4450000e-01
5.6740000e-01
5.9050000e-01
6.1290000e-01
6.3410000e-01
6.5330000e-01
6.7010000e-01
6.8500000e-01
6.9790000e-01
7.0880000e-01
7.1810000e-01
7.2580000e-01
7.3220000e-01
7.3730000e-01
7.4140000e-01
7.4470000e-01
7.4740000e-01
7.4960000e-01
7.5150000e-01
7.5330000e-01
7.5500000e-01
7.5660000e-01
7.5810000e-01
7.5860000e-01
7.5860000e-01
7.5870000e-01
7.5880000e-01
7.5890000e-01
7.5900000e-01
7.5910000e-01
7.5920000e-01
7.5930000e-01
7.5940000e-01
7.5950000e-01
7.5960000e-01
7.5970000e-01
7.5980000e-01
7.5990000e-01
7.6000000e-01
7.6010000e-01
7.6020000e-01
7.6030000e-01
7.6040000e-01
7.6050000e-01
7.6060000e-01
7.6070000e-01
7.6080000e-01
7.6090000e-01
7.6100000e-01
7.6110000e-01
7.6120000e-01
7.6130000e-01
7.6140000e-01
7.6150000e-01
7.6160000e-01
7.6170000e-01
7.6180000e-01
7.6190000e-01
7.6200000e-01
7.6210000e-01
7.6220000e-01
7.6230000e-01
7.6240000e-01
7.6250000e-01
7.6260000e-01
7.6270000e-01
7.6280000e-01
7.6290000e-01
7.6300000e-01
7.6310000e-01
7.6320000e-01
7.6330000e-01
7.6340000e-01
7.6350000e-01
7.6360000e-01
7.6370000e-01
7.6380000e-01
7.6390000e-01
7.6400000e-01
7.6410000e-01
7.6420000e-01
7.6430000e-01
7.6440000e-01
7.6450000e-01
7.6460000e-01
7.6470000e-01
7.6480000e-01
7.6490000e-01
7.6500000e-01
7.6510000e-01
7.6520000e-01
7.6530000e-01
7.6540000e-01
7.6550000e-01
7.6560000e-01
7.6570000e-01
7.6580000e-01
7.6590000e-01
7.6600000e-01
7.6610000e-01
7.6620000e-01
7.6630000e-01
7.6640000e-01
7.6650000e-01
7.6660000e-01
7.6670000e-01
7.6680000e-01
7.6690000e-01
7.6700000e-01
7.6710000e-01
7.6720000e-01
7.6730000e-01
7.6740000e-01
7.6750000e-01
7.6760000e-01
7.6770000e-01
7.6780000e-01
7.6790000e-01
7.6800000e-01
7.6810000e-01
7.6820000e-01
7.6830000e-01
7.6840000e-01
7.6850000e-01
7.6860000e-01
7.6870000e-01
7.6880000e-01
7.6890000e-01
7.6900000e-01
7.6910000e-01
7.6920000e-01
7.6930000e-01
7.6940000e-01
7.6950000e-01
7.6960000e-01
7.6970000e-01
7.6980000e-01
7.6990000e-01
7.7000000e-01
7.7010000e-01
7.7020000e-01
7.7030000e-01
7.7040000e-01
7.7050000e-01
7.7060000e-01
7.7070000e-01
7.7080000e-01
7.7090000e-01
7.7210000e-01
7.7370000e-01
7.7520000e-01
7.7690000e-01
7.7860000e-01
7.8030000e-01
7.8220000e-01
7.8420000e-01
7.8630000e-01
7.8850000e-01
7.9080000e-01
7.9320000e-01
7.9570000e-01
7.9840000e-01
8.0120000e-01
8.0410000e-01
8.0720000e-01
8.1040000e-01
8.1370000e-01
8.1720000e-01
8.2100000e-01
8.2480000e-01
8.2880000e-01
8.3310000e-01
8.3740000e-01
8.4200000e-01
8.4670000e-01
8.5160000e-01
8.5680000e-01
8.6210000e-01
8.6770000e-01
8.7340000e-01
8.7930000e-01
8.8550000e-01
8.9180000e-01
8.9840000e-01
9.0510000e-01
9.1200000e-01
9.1910000e-01
9.2630000e-01
9.3380000e-01
9.4150000e-01
9.4940000e-01
9.5740000e-01
9.6540000e-01
9.7370000e-01
9.8220000e-01
9.9080000e-01
9.9940000e-01
1.0081000e+00
1.0170000e+00
1.0260000e+00
1.0349000e+00
1.0440000e+00
1.0530000e+00
1.0621000e+00
1.0712000e+00
1.0803000e+00
1.0893000e+00
1.0982000e+00
1.1071000e+00
1.1159000e+00
1.1246000e+00
1.1331000e+00
1.1415000e+00
1.1497000e+00
1.1577000e+00
1.1655000e+00
1.1730000e+00
1.1802000e+00
1.1873000e+00
1.1939000e+00
1.2002000e+00
1.2062000e+00
1.2118000e+00
1.2171000e+00
1.2219000e+00
1.2264000e+00
1.2305000e+00
1.2341000e+00
1.2373000e+00
1.2401000e+00
1.2424000e+00
1.2443000e+00
1.2457000e+00
1.2468000e+00
1.2472000e+00
1.2496000e+00
1.2534000e+00
1.2564000e+00
1.2592000e+00
1.2613000e+00
1.2632000e+00
1.2644000e+00
1.2652000e+00
1.2657000e+00
1.2650000e+00
1.2645000e+00
1.2632000e+00
1.2615000e+00
1.2594000e+00
1.2568000e+00
1.2539000e+00
1.2504000e+00
1.2466000e+00
1.2424000e+00
1.2377000e+00
1.2328000e+00
1.2276000e+00
1.2220000e+00
1.2161000e+00
1.2098000e+00
1.2033000e+00
1.1965000e+00
1.1894000e+00
1.1821000e+00
1.1745000e+00
1.1667000e+00
1.1587000e+00
1.1506000e+00
1.1423000e+00
1.1337000e+00
1.1250000e+00
1.1162000e+00
1.1073000e+00
1.0983000e+00
1.0891000e+00
1.0799000e+00
1.0706000e+00
1.0613000e+00
1.0519000e+00
1.0426000e+00
1.0332000e+00
1.0239000e+00
1.0146000e+00
1.0053000e+00
9.9610000e-01
9.8700000e-01
9.7800000e-01
9.6920000e-01
9.6040000e-01
9.5190000e-01
9.4350000e-01
9.3530000e-01
9.2720000e-01
9.1940000e-01
9.1180000e-01
9.0420000e-01
8.9700000e-01
8.8990000e-01
8.8290000e-01
8.7620000e-01
8.6950000e-01
8.6320000e-01
8.5700000e-01
8.5100000e-01
8.4520000e-01
8.3950000e-01
8.3400000e-01
8.2860000e-01
8.2350000e-01
8.1860000e-01
8.1380000e-01
8.0900000e-01
8.0460000e-01
8.0020000e-01
7.9610000e-01
7.9200000e-01
7.8840000e-01
7.8770000e-01
7.8800000e-01
7.8800000e-01
7.8820000e-01
7.8830000e-01
7.8840000e-01
7.8850000e-01
7.8860000e-01
7.8870000e-01
7.8880000e-01
7.8890000e-01
7.8900000e-01
7.8910000e-01
7.8920000e-01
7.8930000e-01
7.8940000e-01
7.8950000e-01
7.8960000e-01
7.8970000e-01
7.8980000e-01
7.8990000e-01
7.9000000e-01
7.9010000e-01
7.9020000e-01
7.9030000e-01
7.9040000e-01
7.9050000e-01
7.9060000e-01
7.9070000e-01
7.9080000e-01
7.9090000e-01
7.9100000e-01
7.9110000e-01
7.9120000e-01
7.9130000e-01
7.9140000e-01
7.9150000e-01
7.9160000e-01
7.9170000e-01
7.9180000e-01
7.9190000e-01
7.9200000e-01
7.9210000e-01
7.9220000e-01
7.9230000e-01
7.9240000e-01
7.9250000e-01
7.9260000e-01
7.9270000e-01
7.9280000e-01
7.9290000e-01
7.9300000e-01
7.9310000e-01
7.9320000e-01
7.9330000e-01
7.9340000e-01
7.9350000e-01
7.9360000e-01
7.9370000e-01
7.9380000e-01
7.9390000e-01
7.9400000e-01
7.9410000e-01
7.9420000e-01
7.9430000e-01
7.9440000e-01
7.9450000e-01
7.9460000e-01
7.9470000e-01
7.9480000e-01
7.9490000e-01
7.9500000e-01
7.9510000e-01
7.9520000e-01
7.9530000e-01
7.9540000e-01
7.9550000e-01
7.9560000e-01
7.9570000e-01
7.9580000e-01
7.9590000e-01
7.9600000e-01
7.9610000e-01
7.9620000e-01
7.9630000e-01
7.9640000e-01
7.9650000e-01
7.9660000e-01
7.9670000e-01
7.9680000e-01
7.9690000e-01
7.9700000e-01
7.9710000e-01
7.9720000e-01
7.9730000e-01
7.9740000e-01
7.9750000e-01
7.9760000e-01
7.9770000e-01
7.9780000e-01
7.9790000e-01
7.9800000e-01
7.9810000e-01
7.9820000e-01
7.9830000e-01
7.9840000e-01
7.9850000e-01
7.9860000e-01
7.9870000e-01
7.9880000e-01
7.9890000e-01
7.9900000e-01
7.9910000e-01
7.9920000e-01
7.9930000e-01
7.9940000e-01
7.9950000e-01
7.9960000e-01
7.9970000e-01
7.9980000e-01
7.9990000e-01
8.0000000e-01
8.0010000e-01
8.0020000e-01
8.0030000e-01
8.0040000e-01
8.0050000e-01
8.0060000e-01
8.0070000e-01
8.0080000e-01
8.0090000e-01
8.0100000e-01
8.0110000e-01
8.0120000e-01
8.0130000e-01
8.0140000e-01
8.0150000e-01
8.0160000e-01
8.0170000e-01
8.0180000e-01
8.0190000e-01
8.0200000e-01
8.0210000e-01
8.0220000e-01
8.0230000e-01
8.0240000e-01
8.0250000e-01
8.0260000e-01
8.0270000e-01
8.0280000e-01
8.0290000e-01
8.0300000e-01
8.0310000e-01
8.0320000e-01
8.0330000e-01
8.0340000e-01
8.0350000e-01
8.0360000e-01
8.0370000e-01
8.0380000e-01
8.0390000e-01
8.0400000e-01
8.0410000e-01
8.0420000e-01
8.0430000e-01
8.0440000e-01
8.0450000e-01
8.0460000e-01
8.0470000e-01
8.0480000e-01
8.0490000e-01
8.0500000e-01
8.0510000e-01
8.0520000e-01
8.0530000e-01
8.0540000e-01
8.0550000e-01
8.0560000e-01
8.0570000e-01
8.0580000e-01
8.0590000e-01
8.0600000e-01
8.0610000e-01
8.0620000e-01
8.0630000e-01
8.0640000e-01
8.0650000e-01
8.0660000e-01
8.0670000e-01
8.0680000e-01
8.0690000e-01
8.0700000e-01
8.0710000e-01
8.0720000e-01
8.0730000e-01
8.0740000e-01
8.0750000e-01
8.0760000e-01
8.0770000e-01
8.0780000e-01
8.0790000e-01
8.0800000e-01
8.0810000e-01
8.0820000e-01
8.0830000e-01
8.0840000e-01
8.0850000e-01
8.0860000e-01
8.0870000e-01
8.0880000e-01
8.0890000e-01
8.0900000e-01
8.0910000e-01
8.0920000e-01
8.0930000e-01
8.0940000e-01
8.0950000e-01
8.0960000e-01
8.0970000e-01
8.0980000e-01
8.0990000e-01
8.1000000e-01
8.1010000e-01
8.1020000e-01
8.1030000e-01
8.1040000e-01
8.1050000e-01
8.1060000e-01
8.1070000e-01
8.1080000e-01
8.1080000e-01
8.1110000e-01
8.1420000e-01
8.1890000e-01
8.2370000e-01
8.2890000e-01
8.3430000e-01
8.4010000e-01
8.4620000e-01
8.5270000e-01
8.5950000e-01
8.6660000e-01
8.7400000e-01
8.8170000e-01
8.8970000e-01
8.9790000e-01
9.0640000e-01
9.1510000e-01
9.2400000e-01
9.3300000e-01
9.4220000e-01
9.5150000e-01
9.6080000e-01
9.7020000e-01
9.7960000e-01
9.8890000e-01
9.9800000e-01
1.0070000e+00
1.0157000e+00
1.0241000e+00
1.0322000e+00
1.0397000e+00
1.0468000e+00
1.0534000e+00
1.0595000e+00
1.0650000e+00
1.0699000e+00
1.0741000e+00
1.0776000e+00
1.0805000e+00
1.0827000e+00
1.0841000e+00
1.0851000e+00
1.0848000e+00
1.0839000e+00
1.0824000e+00
1.0800000e+00
1.0771000e+00
1.0732000e+00
1.0687000e+00
1.0634000e+00
1.0575000e+00
1.0511000e+00
1.0443000e+00
1.0369000e+00
1.0292000e+00
1.0212000e+00
1.0129000e+00
1.0045000e+00
9.9590000e-01
9.8710000e-01
9.7830000e-01
9.6950000e-01
9.6070000e-01
9.5190000e-01
9.4320000e-01
9.3470000e-01
9.2630000e-01
9.1810000e-01
9.1010000e-01
9.0230000e-01
8.9480000e-01
8.8760000e-01
8.8060000e-01
8.7390000e-01
8.6770000e-01
8.6170000e-01
8.5610000e-01
8.5080000e-01
8.4590000e-01
8.4140000e-01
8.3720000e-01
8.3320000e-01
8.2960000e-01
8.2620000e-01
8.2320000e-01
8.2040000e-01
8.1950000e-01
8.1970000e-01
8.1980000e-01
8.1990000e-01
8.2000000e-01
8.2010000e-01
8.2020000e-01
8.2030000e-01
8.2040000e-01
8.2050000e-01
8.2060000e-01
8.2070000e-01
8.2080000e-01
8.2090000e-01
8.2100000e-01
8.2110000e-01
8.2120000e-01
8.2130000e-01
8.2140000e-01
8.2150000e-01
8.2160000e-01
8.2170000e-01
8.2180000e-01
8.2190000e-01
8.2200000e-01
8.2210000e-01
8.2220000e-01
8.2230000e-01
8.2240000e-01
8.2250000e-01
8.2260000e-01
8.2270000e-01
8.2280000e-01
8.2290000e-01
8.2300000e-01
8.2310000e-01
8.2320000e-01
8.2330000e-01
8.2340000e-01
8.2350000e-01
8.2360000e-01
8.2370000e-01
8.2380000e-01
8.2390000e-01
8.2400000e-01
8.2410000e-01
8.2420000e-01
8.2430000e-01
8.2440000e-01
8.2450000e-01
8.2460000e-01
8.2470000e-01
8.2480000e-01
8.2490000e-01
8.2500000e-01
8.2510000e-01
8.2520000e-01
8.2530000e-01
8.2540000e-01
8.2550000e-01
8.2560000e-01
8.2570000e-01
8.2580000e-01
8.2590000e-01
8.2600000e-01
8.2610000e-01
8.2620000e-01
8.2630000e-01
8.2640000e-01
8.2650000e-01
8.2660000e-01
8.2670000e-01
8.2680000e-01
8.2690000e-01
8.2710000e-01
8.2570000e-01
8.2350000e-01
8.2160000e-01
8.1980000e-01
8.1840000e-01
8.1700000e-01
8.1560000e-01
8.1430000e-01
8.1280000e-01
8.1120000e-01
8.0920000e-01
8.0700000e-01
8.0420000e-01
8.0070000e-01
7.9680000e-01
7.9190000e-01
7.8600000e-01
7.7860000e-01
7.6990000e-01
7.5980000e-01
7.4830000e-01
7.3570000e-01
7.2240000e-01
7.0850000e-01
6.9460000e-01
6.8110000e-01
6.6860000e-01
6.5780000e-01
6.4970000e-01
6.4500000e-01
6.4490000e-01
6.5030000e-01
6.6180000e-01
6.8040000e-01
7.0650000e-01
7.4050000e-01
7.8320000e-01
8.3470000e-01
8.9530000e-01
9.6530000e-01
1.0445000e+00
1.1320000e+00
1.2260000e+00
1.3245000e+00
1.4252000e+00
1.5258000e+00
1.6243000e+00
1.7177000e+00
1.8026000e+00
1.8763000e+00
1.9353000e+00
1.9760000e+00
1.9964000e+00
1.9966000e+00
1.9768000e+00
1.9382000e+00
1.8818000e+00
1.8095000e+00
1.7237000e+00
1.6266000e+00
1.5216000e+00
1.4120000e+00
1.3020000e+00
1.1946000e+00
1.0914000e+00
9.9460000e-01
9.0530000e-01
8.2460000e-01
7.5360000e-01
6.9280000e-01
6.4230000e-01
6.0230000e-01
5.7240000e-01
5.5190000e-01
5.4020000e-01
5.3660000e-01
5.4020000e-01
5.4950000e-01
5.6350000e-01
5.8100000e-01
6.0130000e-01
6.2350000e-01
6.4640000e-01
6.6950000e-01
6.9190000e-01
7.1310000e-01
7.3230000e-01
7.4910000e-01
7.6400000e-01
7.7690000e-01
7.8780000e-01
7.9710000e-01
8.0480000e-01
8.1120000e-01
8.1630000e-01
8.2040000e-01
8.2370000e-01
8.2640000e-01
8.2860000e-01
8.3050000e-01
8.3230000e-01
8.3400000e-01
8.3560000e-01
8.3710000e-01
8.3760000e-01
8.3760000e-01
8.3770000e-01
8.3780000e-01
8.3790000e-01
8.3800000e-01
8.3810000e-01
8.3820000e-01
8.3830000e-01
8.3840000e-01
8.3850000e-01
8.3860000e-01
8.3870000e-01
8.3880000e-01
8.3890000e-01
8.3900000e-01
8.3910000e-01
8.3920000e-01
8.3930000e-01
8.3940000e-01
8.3950000e-01
8.3960000e-01
8.3970000e-01
8.3980000e-01
8.3990000e-01
8.4000000e-01
8.4010000e-01
8.4020000e-01
8.4030000e-01
8.4040000e-01
8.4050000e-01
8.4060000e-01
8.4070000e-01
8.4080000e-01
8.4090000e-01
8.4100000e-01
8.4110000e-01
8.4120000e-01
8.4130000e-01
8.4140000e-01
8.4150000e-01
8.4160000e-01
8.4170000e-01
8.4180000e-01
8.4190000e-01
8.4200000e-01
8.4210000e-01
8.4220000e-01
8.4230000e-01
8.4240000e-01
8.4250000e-01
8.4260000e-01
8.4270000e-01
8.4280000e-01
8.4290000e-01
8.4300000e-01
8.4310000e-01
8.4320000e-01
8.4330000e-01
8.4340000e-01
8.4350000e-01
8.4360000e-01
8.4370000e-01
8.4380000e-01
8.4390000e-01
8.4400000e-01
8.4410000e-01
8.4420000e-01
8.4430000e-01
8.4440000e-01
8.4450000e-01
8.4460000e-01
8.4470000e-01
8.4480000e-01
8.4490000e-01
8.4500000e-01
8.4510000e-01
8.4520000e-01
8.4530000e-01
8.4540000e-01
8.4550000e-01
8.4560000e-01
8.4570000e-01
8.4580000e-01
8.4590000e-01
8.4600000e-01
8.4610000e-01
8.4620000e-01
8.4630000e-01
8.4640000e-01
8.4650000e-01
8.4660000e-01
8.4670000e-01
8.4680000e-01
8.4690000e-01
8.4700000e-01
8.4710000e-01
8.4720000e-01
8.4730000e-01
8.4740000e-01
8.4750000e-01
8.4760000e-01
8.4770000e-01
8.4780000e-01
8.4790000e-01
8.4800000e-01
8.4810000e-01
8.4820000e-01
8.4830000e-01
8.4840000e-01
8.4850000e-01
8.4860000e-01
8.4870000e-01
8.4880000e-01
8.4890000e-01
8.4900000e-01
8.4910000e-01
8.4920000e-01
8.4930000e-01
8.4940000e-01
8.4950000e-01
8.4960000e-01
8.4970000e-01
8.4980000e-01
8.4990000e-01
8.5110000e-01