Patient Number 07D5726 Lead Number 1 Time Step .0006 Data Points 9323
0.0000000e+00
 2.0631603e-60
-3.3010564e-60
 5.3642167e-60
 2.8978173e-74
-3.5073724e-59
 1.3534331e-58
-2.6944873e-58
-3.4773808e-72
 1.8217705e-57
-7.0345512e-57
 1.4005970e-56
 1.9287872e-70
-9.4696993e-56
 3.6566132e-55
-7.2804098e-55
-1.8516357e-68
 4.9224219e-54
-1.9007354e-53
 3.7844125e-53
 9.4196032e-67
-2.5587124e-52
 9.8801675e-52
-1.9671665e-51
-5.1534345e-65
 1.3300382e-50
-5.1357864e-50
 1.0225481e-49
 5.2273328e-63
-6.9136399e-49
 2.6696209e-48
-5.3152830e-48
-2.7281699e-61
 3.5937627e-47
-1.3876893e-46
 2.7629246e-46
 1.4019209e-59
-1.8680653e-45
 7.2133147e-45
-1.4361893e-44
-7.2594012e-58
 9.7103456e-44
-3.7495359e-43
 7.4654213e-43
 3.8107778e-56
-5.0475116e-42
 1.9490374e-41
-3.8805829e-41
-2.0045735e-54
 2.6237350e-40
-1.0131245e-39
 2.0171566e-39
 9.9426847e-53
-1.3638375e-38
 5.2662982e-38
-1.0485334e-37
-1.0742376e-50
 7.0893310e-37
-2.7374620e-36
 5.4503563e-36
 5.5832986e-49
-3.6850883e-35
 1.4229536e-34
-2.8331367e-34
-2.9006878e-47
 1.9155370e-33
-7.3966212e-33
 1.4726861e-32
 1.5156444e-45
-9.9571072e-32
 3.8448201e-31
-7.6551344e-31
-7.7773186e-44
 5.1757802e-30
-1.9985668e-29
 3.9791972e-29
 4.1142302e-42
-2.6904100e-28
 1.0388702e-27
-2.0684170e-27
-2.1158898e-40
 1.3984956e-26
-5.4001267e-26
 1.0751789e-25
 1.1134282e-38
-7.2694868e-25
 2.8070270e-24
-5.5888621e-24
-5.6814933e-37
 3.7787347e-23
-1.4591140e-22
 2.9051331e-22
 5.9472717e-35
-1.9642151e-21
 7.5845859e-21
-1.5101103e-20
-1.5382788e-33
 1.0210140e-19
-3.9425256e-19
 7.8496685e-19
 7.9832724e-32
-5.3073084e-18
 2.0493548e-17
-4.0803175e-17
-4.1601369e-30
 2.7587794e-16
-1.0652703e-15
 2.1209802e-15
 0.0000000e+00
-1.4340345e-14
 5.5373560e-14
-1.1025016e-13
-2.2623390e-26
 7.4542208e-13
-2.8783599e-12
 5.7308876e-12
 1.1726112e-24
-3.8747608e-11
 1.4961934e-10
-2.9789590e-10
-6.1325185e-23
 2.0141302e-09
-7.7773273e-09
 1.5484856e-08
 3.1767124e-21
-1.0469602e-07
 4.0427140e-07
-8.0491462e-07
-1.6410484e-19
 5.4421790e-06
-2.6014335e-05
-3.2222424e-05
-6.0000000e-05
-1.0101361e-04
 1.0573412e-03
 3.2969960e-03
 5.8600000e-03
 8.6341407e-03
 1.1479274e-02
 1.4418119e-02
 1.7500000e-02
 2.0660698e-02
 2.3950429e-02
 2.7372711e-02
 3.0900000e-02
 3.4538923e-02
 3.8308418e-02
 4.2219636e-02
 4.6260000e-02
 5.0398749e-02
 5.4636817e-02
 5.8979038e-02
 6.3420000e-02
 6.7957393e-02
 7.2637100e-02
 7.7419758e-02
 8.2260000e-02
 8.7193368e-02
 9.2224008e-02
 9.7326989e-02
 1.0250000e-01
 1.0777123e-01
 1.1308198e-01
 1.1842932e-01
 1.2384000e-01
 1.2930694e-01
 1.3481797e-01
 1.4033855e-01
 1.4586000e-01
 1.5142051e-01
 1.5700092e-01
 1.6257742e-01
 1.6814000e-01
 1.7367388e-01
 1.7911412e-01
 1.8449091e-01
 1.8984000e-01
 1.9510665e-01
 2.0027228e-01
 2.0533758e-01
 2.1030000e-01
 2.1513149e-01
 2.1976212e-01
 2.2420374e-01
 2.2850000e-01
 2.3265009e-01
 2.3664502e-01
 2.4043768e-01
 2.4400000e-01
 2.4736280e-01
 2.5052675e-01
 2.5348045e-01
 2.5622000e-01
 2.5873155e-01
 2.6091905e-01
 2.6284121e-01
 2.6458000e-01
 2.6608888e-01
 2.6736275e-01
 2.6835555e-01
 2.6910000e-01
 2.6970035e-01
 2.6988023e-01
 2.6965664e-01
 2.6920000e-01
 2.6853564e-01
 2.6771545e-01
 2.6655771e-01
 2.6500000e-01
 2.6330917e-01
 2.6137367e-01
 2.5910912e-01
 2.5658000e-01
 2.5387377e-01
 2.5080846e-01
 2.4743656e-01
 2.4390000e-01
 2.4018014e-01
 2.3628620e-01
 2.3227278e-01
 2.2810000e-01
 2.2362905e-01
 2.1902650e-01
 2.1434820e-01
 2.0956000e-01
 2.0467343e-01
 1.9967572e-01
 1.9460714e-01
 1.8950000e-01
 1.8432215e-01
 1.7907354e-01
 1.7376426e-01
 1.6842000e-01
 1.6307939e-01
 1.5774023e-01
 1.5240008e-01
 1.4706000e-01
 1.4171889e-01
 1.3638682e-01
 1.3106951e-01
 1.2580000e-01
 1.2063078e-01
 1.1550246e-01
 1.1040869e-01
 1.0538000e-01
 1.0041931e-01
 9.5522834e-02
 9.0703691e-02
 8.5980000e-02
 8.1358004e-02
 7.6837690e-02
 7.2417505e-02
 6.8080000e-02
 6.3803256e-02
 5.9642260e-02
 5.5650096e-02
 5.1820000e-02
 4.8086760e-02
 4.4434770e-02
 4.0896258e-02
 3.7500000e-02
 3.4237737e-02
 3.1109697e-02
 2.8117944e-02
 2.5260000e-02
 2.2526218e-02
 1.9900974e-02
 1.7361904e-02
 1.4920000e-02
 1.2620826e-02
 1.0424669e-02
 8.2986691e-03
 6.2800000e-03
 4.4186230e-03
 2.5562553e-03
 1.0701151e-03
 3.0000000e-04
-2.5472944e-05
-4.7442763e-05
 1.0344161e-05
 6.1062266e-19
-1.5299325e-06
 7.6841434e-07
-1.9899979e-07
 0.0000000e+00
 2.9432667e-08
-1.4782668e-08
 3.8283354e-09
 2.3310347e-22
-5.6622231e-10
 2.8438729e-10
-7.3649083e-11
 0.0000000e+00
 1.0892921e-11
-5.4710103e-12
 1.4168527e-12
 8.7350273e-26
-2.0955677e-13
 1.0525068e-13
-2.7257251e-14
-1.7163998e-27
 4.0314293e-15
-2.0248005e-15
 5.2437190e-16
 3.2311743e-29
-7.7556180e-17
 3.8952883e-17
-1.0087807e-17
-6.2604001e-31
 1.4920170e-18
-7.4937114e-19
 1.9406809e-19
 1.1990686e-32
-2.8703253e-20
 1.4416317e-20
-3.7334599e-21
-2.2679751e-34
 5.5218993e-22
-2.7733947e-22
 7.1823877e-23
 4.3911203e-36
-1.0622967e-23
 5.3354252e-24
-1.3817396e-24
-8.3055729e-38
 2.0436344e-25
-1.0264230e-25
 2.6581749e-26
 1.5798644e-39
-3.9315206e-27
 1.9746212e-27
-5.1137699e-28
-3.1738347e-41
 7.5636280e-29
-3.7995774e-29
 9.8542117e-30
 6.0611427e-43
-1.5659605e-30
 1.1591020e-30
-1.0420190e-30
-3.6102829e-43
 5.7936651e-30
-2.2277529e-29
 4.4330775e-29
 1.8165061e-41
-2.9970462e-28
 1.1572724e-27
-2.3041583e-27
-9.4274647e-40
 1.5578847e-26
-6.0155888e-26
 1.1977190e-25
 4.9276723e-38
-8.0980032e-25
 3.1269489e-24
-6.2258347e-24
-2.5494498e-36
 4.2094038e-23
-1.6254119e-22
 3.2362363e-22
 1.3250398e-34
-2.1880802e-21
 8.4490147e-21
-1.6822203e-20
-6.9222544e-33
 1.1373808e-19
-4.3918622e-19
 8.7443093e-19
 7.1723234e-31
-5.9121918e-18
 2.2829235e-17
-4.5453586e-17
-1.8599447e-29
 3.0732024e-16
-1.1866810e-15
 2.3627120e-15
 1.9387046e-27
-1.5974740e-14
 6.1684584e-14
-1.2281557e-13
-5.0375299e-26
 8.3037917e-13
-3.2064117e-12
 6.3840471e-12
 2.6205082e-24
-4.3163742e-11
 1.6667172e-10
-3.3184763e-10
-1.3620290e-22
 2.2436842e-09
-8.6637231e-09
 1.7249693e-08
 7.0906822e-21
-1.1662841e-07
 4.5034693e-07
-8.9665218e-07
-3.6810832e-19
 6.0624339e-06
-2.0909377e-05
 8.4733664e-05
 1.0000000e-04
-7.1012993e-04
-1.9231628e-03
-3.2158789e-03
-4.5000000e-03
-5.6889934e-03
-6.8671271e-03
-7.9240331e-03
-8.8000000e-03
-9.6965873e-03
-1.0601227e-02
-1.1500340e-02
-1.2380000e-02
-1.3210653e-02
-1.4124081e-02
-1.5108602e-02
-1.6120000e-02
-1.7237569e-02
-1.8486550e-02
-1.9797694e-02
-2.1200000e-02
-2.2893256e-02
-2.4847838e-02
-2.6992858e-02
-2.9300000e-02
-3.1803744e-02
-3.4610873e-02
-3.7818667e-02
-4.1500000e-02
-4.5694863e-02
-5.0359271e-02
-5.5477090e-02
-6.1040000e-02
-6.7057112e-02
-7.3722054e-02
-8.0916080e-02
-8.8420000e-02
-9.6210008e-02
-1.0422894e-01
-1.1247674e-01
-1.2090000e-01
-1.2931497e-01
-1.3762288e-01
-1.4573729e-01
-1.5354000e-01
-1.6091374e-01
-1.6784614e-01
-1.7385276e-01
-1.7856000e-01
-1.8215932e-01
-1.8443296e-01
-1.8512122e-01
-1.8414000e-01
-1.8137778e-01
-1.7593512e-01
-1.6782040e-01
-1.5740000e-01
-1.4448692e-01
-1.2894845e-01
-1.1097593e-01
-9.0100000e-02
-6.5109656e-02
-3.6965325e-02
-5.9964885e-03
 2.8100000e-02
 6.5323425e-02
 1.0548783e-01
 1.4947708e-01
 1.9758000e-01
 2.4836751e-01
 3.0160316e-01
 3.5707163e-01
 4.1438000e-01
 4.7320186e-01
 5.3323771e-01
 5.9373485e-01
 6.5400000e-01
 7.1381152e-01
 7.7266840e-01
 8.3035020e-01
 8.8590000e-01
 9.3742759e-01
 9.8518557e-01
 1.0289480e+00
 1.0678600e+00
 1.1013422e+00
 1.1293495e+00
 1.1493262e+00
 1.1600400e+00
 1.1642104e+00
 1.1617373e+00
 1.1523588e+00
 1.1365600e+00
 1.1146462e+00
 1.0845503e+00
 1.0474940e+00
 1.0056600e+00
 9.5893939e-01
 9.0772812e-01
 8.5255921e-01
 7.9360000e-01
 7.3093658e-01
 6.6630249e-01
 6.0074780e-01
 5.3476000e-01
 4.6900008e-01
 4.0388468e-01
 3.4018626e-01
 2.7856000e-01
 2.1908163e-01
 1.6192414e-01
 1.0735469e-01
 5.5440000e-02
 6.2895712e-03
-3.8549742e-02
-7.9305777e-02
-1.1684000e-01
-1.5088621e-01
-1.8137005e-01
-2.0851305e-01
-2.3190000e-01
-2.5052930e-01
-2.6572257e-01
-2.7801241e-01
-2.8722000e-01
-2.9352201e-01
-2.9721861e-01
-2.9778019e-01
-2.9520000e-01
-2.9081286e-01
-2.8472480e-01
-2.7699884e-01
-2.6792000e-01
-2.5769840e-01
-2.4614167e-01
-2.3359004e-01
-2.2054000e-01
-2.0711022e-01
-1.9347355e-01
-1.7968742e-01
-1.6590000e-01
-1.5245632e-01
-1.3939373e-01
-1.2681029e-01
-1.1486000e-01
-1.0363165e-01
-9.3187644e-02
-8.3607402e-02
-7.4860000e-02
-6.6770401e-02
-5.9348788e-02
-5.2606076e-02
-4.6460000e-02
-4.0823735e-02
-3.5925387e-02
-3.1631333e-02
-2.7720000e-02
-2.4256642e-02
-2.1221113e-02
-1.8541478e-02
-1.6200000e-02
-1.4235885e-02
-1.2501719e-02
-1.0940873e-02
-9.5600000e-03
-8.3245375e-03
-7.2045120e-03
-6.1543730e-03
-5.1400000e-03
-4.1603516e-03
-3.2086568e-03
-2.3070457e-03
-1.4200000e-03
-5.2249375e-04
-5.5334728e-05
 3.4809394e-05
 4.0000000e-05
 8.4643186e-06
-3.9373273e-06
 1.0196677e-06
 1.2212453e-19
-1.5081192e-07
 7.5745855e-08
-1.9616252e-08
 0.0000000e+00
 2.9013026e-09
-1.4571902e-09
 3.7737523e-10
 4.5739779e-23
-5.5814930e-11
 2.8033259e-11
-7.2599019e-12
-8.7350273e-25
 1.0737613e-12
-5.3930065e-13
 1.3966517e-13
 1.6874484e-26
-2.0656898e-14
 1.0375005e-14
-2.6868626e-15
-3.2570237e-28
 3.9739506e-16
-1.9959316e-16
 5.1689558e-17
 6.3007898e-30
-7.6450410e-18
 3.8397506e-18
-9.9439786e-19
-1.1864468e-31
 1.4707443e-19
-7.3868686e-20
 1.9130113e-20
 2.3074181e-33
-2.8294012e-21
 1.4210774e-21
-3.6802294e-22
-4.4681575e-35
 5.4431699e-23
-2.7338526e-23
 7.0799836e-24
 8.6666847e-37
-1.0471508e-24
 5.2593545e-25
-1.3620392e-25
-1.6400497e-38
 2.0144969e-26
-1.0117886e-26
 2.6202756e-27
 3.1738347e-40
-3.8754663e-28
 1.9464675e-28
-5.0408564e-29
-6.0244085e-42
 7.4555780e-30
-3.7445921e-30
 9.6975423e-31
 1.1709026e-43
-1.4342956e-31
 7.2038038e-32
-1.8656022e-32
-2.2600142e-45
 2.7592817e-33
-1.3858596e-33
 3.5890243e-34
 4.2879733e-47
-5.3082747e-35
 2.6661009e-35
-6.9045242e-36
-8.2326285e-49
 1.0211999e-36
-5.1290147e-37
 1.3282845e-37
 0.0000000e+00
-1.9645727e-38
 9.8671403e-39
-2.5553387e-39
-3.0790249e-52
 3.7794227e-40
-1.8982293e-40
 4.9159315e-41
 6.0137206e-54
-7.2708104e-42
 3.6517919e-42
-9.4572133e-43
-1.1484536e-55
 1.3987503e-43
-7.0252758e-44
 1.8193680e-44
 2.2022903e-57
-2.6908999e-45
 1.3515147e-45
-3.5000825e-46
-4.1802732e-59
 5.1769279e-47
-2.6008213e-47
 6.7491996e-48
 8.4433871e-61
-1.1026282e-48
 9.1233975e-49
-9.5013623e-49
-6.8851441e-61
 5.5673869e-48
-2.1433454e-47
 4.2657884e-47
 3.5032091e-59
-2.8840149e-46
 1.1136273e-45
-2.2172599e-45
-1.8199482e-57
 1.4991310e-44
-5.7887184e-44
 1.1525485e-43
 9.4355903e-56
-7.7925973e-43
 3.0090200e-42
-5.9910352e-42
-4.9112052e-54
 4.0506515e-41
-1.5641115e-40
 3.1141857e-40
 2.5538267e-52
-2.1055595e-39
 8.1303708e-39
-1.6187775e-38
-1.3274019e-50
 1.0944859e-37
-4.2262287e-37
 8.4145287e-37
 6.9079635e-49
-5.6892210e-36
 2.1968259e-35
-4.3739362e-35
-3.5873241e-47
 2.9573004e-34
-1.1419268e-33
 2.2736054e-33
 1.8665296e-45
-1.5372273e-32
 5.9358228e-32
-1.1818374e-31
-9.7001243e-44
 7.9906247e-31
-3.0854859e-30
 6.1432808e-30
 5.0394729e-42
-4.1535876e-29
 1.6038591e-28
-3.1933242e-28
-2.6198830e-40
 2.1590665e-27
-8.3369818e-27
 1.6599143e-26
 1.3598119e-38
-1.1222992e-25
 4.3336267e-25
-8.6283608e-25
-1.4173641e-36
 5.8337969e-24
-2.2526522e-23
 4.4850877e-23
 3.6766003e-35
-3.0324521e-22
 1.1709458e-21
-2.3313828e-21
-1.9117551e-33
 1.5762917e-20
-6.0866653e-20
 1.2118705e-19
 9.9396474e-32
-8.1936844e-19
 3.1638950e-18
-6.2993954e-18
-1.0342282e-29
 4.2591396e-17
-1.6446167e-16
 3.2744737e-16
 2.6899526e-28
-2.2139332e-15
 8.5488432e-15
-1.7020964e-14
-1.3989692e-26
 1.1508194e-13
-4.4437538e-13
 8.8476268e-13
 7.2626458e-25
-5.9820467e-12
 2.3098971e-11
-4.5990638e-11
-3.7756494e-23
 3.1095135e-10
-1.2007021e-09
 2.3906284e-09
 1.9610507e-21
-1.6163488e-08
 6.2413411e-08
-1.2426669e-07
-1.0208848e-19
 8.4019043e-07
-3.2442967e-06
 6.4594771e-06
 5.3040905e-18
-4.3673739e-05
 2.5114101e-04
 8.9735646e-04
 1.7000000e-03
 2.5892567e-03
 3.4339115e-03
 4.3060048e-03
 5.2800000e-03
 6.2423244e-03
 7.1979586e-03
 8.1628938e-03
 9.1600000e-03
 1.0230186e-02
 1.1352242e-02
 1.2509458e-02
 1.3700000e-02
 1.4924244e-02
 1.6182974e-02
 1.7473440e-02
 1.8800000e-02
 2.0174129e-02
 2.1580612e-02
 2.3029494e-02
 2.4540000e-02
 2.6108261e-02
 2.7712696e-02
 2.9350359e-02
 3.1040000e-02
 3.2800657e-02
 3.4611675e-02
 3.6460261e-02
 3.8340000e-02
 4.0249130e-02
 4.2235198e-02
 4.4331987e-02
 4.6520000e-02
 4.8737101e-02
 5.0973020e-02
 5.3241104e-02
 5.5600000e-02
 5.8112844e-02
 6.0637767e-02
 6.3174056e-02
 6.5800000e-02
 6.8508435e-02
 7.1248108e-02
 7.4041759e-02
 7.6940000e-02
 7.9942591e-02
 8.3010611e-02
 8.6121658e-02
 8.9300000e-02
 9.2588995e-02
 9.5930098e-02
 9.9316409e-02
 1.0278000e-01
 1.0633373e-01
 1.0998179e-01
 1.1366786e-01
 1.1740000e-01
 1.2128717e-01
 1.2522416e-01
 1.2918846e-01
 1.3322000e-01
 1.3731770e-01
 1.4148930e-01
 1.4570951e-01
 1.4998000e-01
 1.5435921e-01
 1.5882497e-01
 1.6335867e-01
 1.6796000e-01
 1.7262941e-01
 1.7735746e-01
 1.8209756e-01
 1.8684000e-01
 1.9165452e-01
 1.9656218e-01
 2.0154995e-01
 2.0660000e-01
 2.1169811e-01
 2.1679921e-01
 2.2190430e-01
 2.2704000e-01
 2.3221995e-01
 2.3746411e-01
 2.4277893e-01
 2.4812000e-01
 2.5341522e-01
 2.5872719e-01
 2.6409549e-01
 2.6948000e-01
 2.7481683e-01
 2.8019222e-01
 2.8560192e-01
 2.9100000e-01
 2.9640045e-01
 3.0179475e-01
 3.0716761e-01
 3.1250000e-01
 3.1778225e-01
 3.2306062e-01
 3.2833573e-01
 3.3358000e-01
 3.3878856e-01
 3.4397556e-01
 3.4909298e-01
 3.5412000e-01
 3.5912154e-01
 3.6407514e-01
 3.6896095e-01
 3.7378000e-01
 3.7853333e-01
 3.8320197e-01
 3.8777194e-01
 3.9224000e-01
 3.9660746e-01
 4.0087516e-01
 4.0511780e-01
 4.0930000e-01
 4.1322745e-01
 4.1702708e-01
 4.2074850e-01
 4.2436000e-01
 4.2786149e-01
 4.3122934e-01
 4.3446500e-01
 4.3756000e-01
 4.4047912e-01
 4.4326487e-01
 4.4593837e-01
 4.4850000e-01
 4.5093509e-01
 4.5314256e-01
 4.5515916e-01
 4.5706000e-01
 4.5882364e-01
 4.6044471e-01
 4.6190950e-01
 4.6320000e-01
 4.6430949e-01
 4.6524478e-01
 4.6602414e-01
 4.6670000e-01
 4.6726468e-01
 4.6739937e-01
 4.6789518e-01
 4.6944000e-01
 4.7142924e-01
 4.7348043e-01
 4.7535353e-01
 4.7704000e-01
 4.7870318e-01
 4.8004808e-01
 4.8117802e-01
 4.8228000e-01
 4.8318681e-01
 4.8387934e-01
 4.8439529e-01
 4.8480000e-01
 4.8509996e-01
 4.8498621e-01
 4.8457732e-01
 4.8416000e-01
 4.8371480e-01
 4.8301772e-01
 4.8206284e-01
 4.8096000e-01
 4.7972436e-01
 4.7833752e-01
 4.7678278e-01
 4.7510000e-01
 4.7333936e-01
 4.7130601e-01
 4.6906680e-01
 4.6676000e-01
 4.6432305e-01
 4.6174742e-01
 4.5900400e-01
 4.5610000e-01
 4.5311432e-01
 4.5003560e-01
 4.4684184e-01
 4.4352000e-01
 4.4006998e-01
 4.3653412e-01
 4.3284545e-01
 4.2898000e-01
 4.2506123e-01
 4.2106287e-01
 4.1696199e-01
 4.1276000e-01
 4.0845522e-01
 4.0406147e-01
 3.9957116e-01
 3.9498000e-01
 3.9031129e-01
 3.8557568e-01
 3.8076968e-01
 3.7590000e-01
 3.7098892e-01
 3.6601830e-01
 3.6096554e-01
 3.5582000e-01
 3.5059264e-01
 3.4532787e-01
 3.4002747e-01
 3.3468000e-01
 3.2930036e-01
 3.2388760e-01
 3.1844036e-01
 3.1294000e-01
 3.0736320e-01
 3.0178215e-01
 2.9619104e-01
 2.9056000e-01
 2.8491985e-01
 2.7927835e-01
 2.7360011e-01
 2.6790000e-01
 2.6226079e-01
 2.5659601e-01
 2.5090506e-01
 2.4524000e-01
 2.3959853e-01
 2.3396162e-01
 2.2831782e-01
 2.2268000e-01
 2.1707904e-01
 2.1151208e-01
 2.0598065e-01
 2.0048000e-01
 1.9500529e-01
 1.8963010e-01
 1.8429948e-01
 1.7896000e-01
 1.7369415e-01
 1.6852014e-01
 1.6339115e-01
 1.5830000e-01
 1.5331119e-01
 1.4835999e-01
 1.4345444e-01
 1.3864000e-01
 1.3391440e-01
 1.2927763e-01
 1.2465281e-01
 1.2004000e-01
 1.1558167e-01
 1.1121083e-01
 1.0688179e-01
 1.0258000e-01
 9.8298973e-02
 9.4164406e-02
 9.0099863e-02
 8.6020000e-02
 8.2039261e-02
 7.8177541e-02
 7.4372522e-02
 7.0600000e-02
 6.6925684e-02
 6.3328486e-02
 5.9783346e-02
 5.6280000e-02
 5.2818920e-02
 4.9428662e-02
 4.6089716e-02
 4.2800000e-02
 3.9618897e-02
 3.6526113e-02
 3.3496099e-02
 3.0520000e-02
 2.7582808e-02
 2.4623468e-02
 2.1738138e-02
 1.9000000e-02
 1.6298537e-02
 1.3611030e-02
 1.1007896e-02
 8.5000000e-03
 5.9782627e-03
 3.5104871e-03
 1.4900164e-03
 2.8000000e-04
-1.4569573e-04
-8.3856894e-05
-1.2549770e-09
-8.0000000e-05
-5.9584514e-05
-1.2428577e-05
 1.9238128e-06
 0.0000000e+00
-2.8453769e-07
 1.4291013e-07
-3.7010092e-08
-8.9771940e-21
 5.4739038e-09
-2.7492888e-09
 7.1199595e-10
 1.7279472e-22
-1.0530634e-10
 5.2890505e-11
-1.3697297e-11
 0.0000000e+00
 2.0258714e-12
-1.0175015e-12
 2.6350705e-13
 6.3858343e-26
-3.8973484e-14
 1.9574579e-14
-5.0693187e-15
-1.2304312e-27
 7.4976746e-16
-3.7657353e-16
 9.7522977e-17
 2.3829910e-29
-1.4423941e-17
 7.2444788e-18
-1.8761360e-18
-4.5185953e-31
 2.7748615e-19
-1.3936846e-19
 3.6092891e-20
 0.0000000e+00
-5.3382470e-21
 2.6811546e-21
-6.9435093e-22
-1.6824924e-34
 1.0269659e-22
-5.1579748e-23
 1.3357844e-23
 3.2355623e-36
-1.9756653e-24
 9.9228534e-25
-2.5697669e-25
-6.2291797e-38
 3.8007625e-26
-1.9089473e-26
 4.9436885e-27
 1.2037062e-39
-7.3118638e-28
 3.6724111e-28
-9.5106118e-29
-2.3142545e-41
 1.4066480e-29
-7.0649427e-30
 1.8296407e-30
 4.4310627e-43
-2.7060935e-31
 1.3591457e-31
-3.5198420e-32
-8.5378313e-45
 5.2059520e-33
-2.6147090e-33
 6.7714321e-34
 0.0000000e+00
-1.0015151e-34
 5.0301475e-35
-1.3026804e-35
-3.1529215e-48
 1.9267035e-36
-9.6769406e-37
 2.5060818e-37
 6.0759426e-50
-3.7065702e-38
 1.8616389e-38
-4.8211717e-39
-1.1674636e-51
 7.1306578e-40
-3.5813997e-40
 9.2749154e-41
 2.2584862e-53
-1.3717878e-41
 6.8898561e-42
-1.7842977e-42
 0.0000000e+00
 2.6390299e-43
-1.3254627e-43
 3.4326116e-44
 8.3197632e-57
-5.0769357e-45
 2.5499101e-45
-6.6036193e-46
-1.6007388e-58
 9.7669513e-47
-4.9054880e-47
 1.2703968e-47
 0.0000000e+00
-1.8789550e-48
 9.4371222e-49
-2.4439749e-49
-5.9243105e-62
 3.6147123e-50
-1.8155029e-50
 4.7016912e-51
 1.1357003e-63
-6.9539425e-52
 3.4926438e-52
-9.0450601e-53
-2.1999331e-65
 1.3377916e-53
-6.7191084e-54
 1.7400784e-54
 4.1970409e-67
-2.5736280e-55
 1.2926137e-55
-3.3475274e-56
 0.0000000e+00
 4.9500598e-57
-2.4826358e-57
 6.3587074e-58
 1.4280444e-70
-4.0308980e-59
-1.6430534e-58
 4.0999600e-58
 6.8991234e-70
-2.8539928e-57
 1.1026513e-56
-2.1955663e-56
-3.6068321e-68
 1.4844794e-55
-5.7321440e-55
 1.1412845e-54
 1.8725260e-66
-7.7164387e-54
 2.9796122e-53
-5.9324836e-53
-9.7416929e-65
 4.0110636e-52
-1.5488251e-51
 3.0837502e-51
 5.0620340e-63
-2.0849814e-50
 8.0509111e-50
-1.6029568e-49
-2.6329578e-61
 1.0837892e-48
-4.1849249e-48
 8.3322919e-48
 0.0000000e+00
-5.6336191e-47
 2.1753559e-46
-4.3311888e-46
-7.1064644e-58
 2.9283981e-45
-1.1307666e-44
 2.2513850e-44
 3.6957693e-56
-1.5222037e-43
 5.8778108e-43
-1.1702871e-42
-1.9205276e-54
 7.9125307e-42
-3.0553308e-41
 6.0832413e-41
 9.9694124e-53
-4.1129938e-40
 1.5881843e-39
-3.1621152e-39
-5.1915782e-51
 2.1379655e-38
-8.2555028e-38
 1.6436916e-37
 2.6985943e-49
-1.1113308e-36
 4.2912733e-36
-8.5440341e-36
-1.4026122e-47
 5.7767820e-35
-2.2306365e-34
 4.4412540e-34
 7.2867520e-46
-3.0028153e-33
 1.1595019e-32
-2.3085977e-32
-3.7900079e-44
 1.5608863e-31
-6.0271791e-31
 1.2000267e-30
 1.9698714e-42
-8.1136058e-30
 3.1329736e-29
-6.2378301e-29
-1.0237821e-40
 4.2175142e-28
-1.6285436e-27
 3.2424716e-27
 5.3214629e-39
-2.1922960e-26
 8.4652936e-26
-1.6854615e-25
-2.7647627e-37
 1.1395722e-24
-4.4003241e-24
 8.7611572e-24
 1.4367437e-35
-5.9235830e-23
 2.2873220e-22
-4.5541163e-22
-7.4756897e-34
 3.0791236e-21
-1.1889674e-20
 2.3672643e-20
 3.8831678e-32
-1.6005519e-19
 6.1803433e-19
-1.2305220e-18
-2.0194839e-30
 8.3197908e-18
-3.2125895e-17
 6.3963474e-17
 1.0497277e-28
-4.3246906e-16
 1.6699285e-15
-3.3248701e-15
-5.4593920e-27
 2.2480072e-14
-8.6804157e-14
 1.7282928e-13
 2.8364023e-25
-1.1685313e-12
 4.5121462e-12
-8.9837978e-12
 0.0000000e+00
 6.0741145e-11
-2.3454480e-10
 4.6698466e-10
 7.6656482e-22
-3.1573710e-09
 1.2191817e-08
-2.4274218e-08
-3.9866114e-20
 1.6412255e-07
-6.3373996e-07
 1.2617924e-06
 2.0705659e-18
-2.5406215e-05
-7.2057714e-05
-6.5588929e-05
-7.7249405e-18
 4.7090732e-06
-2.3651497e-06
 6.1251370e-07
 1.4849233e-19
-9.0592616e-08
 4.5500482e-08
-1.1783469e-08
-2.8514517e-21
 1.7428105e-09
-8.7533311e-10
 2.2668904e-10
 5.5057142e-23
-3.3527990e-11
 1.6839559e-11
-4.3610180e-12
-1.0587912e-24
 6.4500766e-13
-3.2395753e-13
 8.3896769e-14
 2.0431361e-26
-1.2408584e-14
 6.2322581e-15
-1.6139965e-15
-3.9420326e-28
 2.3871493e-16
-1.1989547e-16
 3.1049882e-17
 7.5932595e-30
-4.5923708e-18
 2.3065355e-18
-5.9733410e-19
-1.4451932e-31
 8.8347508e-20
-4.4372868e-20
 1.1491446e-20
 2.7807347e-33
-1.6996193e-21
 8.5364020e-22
-2.2107113e-22
-5.3926038e-35
 3.2697084e-23
-1.6422233e-23
 4.2529412e-24
 1.0351873e-36
-6.2902278e-25
 3.1592906e-25
-8.1817601e-26
-1.9861153e-38
 1.2101069e-26
-6.0778074e-27
 1.5739977e-27
 3.8438665e-40
-2.3279899e-28
 1.1692417e-28
-3.0280389e-29
-7.3468397e-42
 4.4785605e-30
-2.2493739e-30
 5.8253069e-31
 1.4177105e-43
-8.6158039e-32
 4.3273199e-32
-1.1206659e-32
-2.7173980e-45
 1.6574986e-33
-8.3248489e-34
 2.1559244e-34
 5.2408563e-47
-3.1886769e-35
 1.6015250e-35
-4.1475429e-36
-1.0115623e-48
 6.1343405e-37
-3.0809956e-37
 7.9789959e-38
 1.9432069e-50
-1.1801175e-38
 5.9271843e-39
-1.5349902e-39
-3.7204885e-52
 2.2702966e-40
-1.1402650e-40
 2.9529967e-41
 7.1830552e-54
-4.3675708e-42
 2.1936288e-42
-5.6809414e-43
-1.3781443e-55
 8.4022830e-44
-4.2200783e-44
 1.0928931e-44
 2.6590616e-57
-1.6164217e-45
 8.1185387e-46
-2.1024953e-46
-5.0978941e-59
 3.1096537e-47
-1.5618352e-47
 4.0447565e-48
 9.7975153e-61
-5.9823164e-49
 3.0046409e-49
-7.7812567e-50
-1.9042427e-62
 1.1508712e-50
-5.7802941e-51
 1.4969493e-51
 3.6365746e-64
-2.2140330e-52
 1.1120064e-52
-2.8798141e-53
-6.9583520e-66
 4.2593316e-54
-2.1392653e-54
 5.5401537e-55
 1.3483706e-67
-8.1940538e-56
 4.1154943e-56
-1.0658085e-56
-2.5816075e-69
 1.5763628e-57
-7.9173413e-58
 2.0503903e-58
 4.9842458e-71
-3.0325888e-59
 1.5231291e-59
-3.9445175e-60
-9.5990198e-73
 5.8340599e-61
-2.9301785e-61
 7.5884180e-62
 1.8337750e-74
-1.1223498e-62
 5.6370442e-63
-1.4598512e-63
-3.5550615e-76
 2.1591638e-64
-1.0844482e-64
 2.8084452e-65
 6.7983919e-78
-4.1537749e-66
 2.0862490e-66
-5.4028551e-67
-1.3040615e-79
 7.9909849e-68
-4.0135022e-68
 1.0393951e-68
 2.5368745e-81
-1.5372966e-69
 7.7211300e-70
-1.9995765e-70
-9.7199065e-83
 2.9574338e-71
-1.4853822e-71
 3.8467626e-72
 9.3232563e-85
-5.6894775e-73
 2.8575615e-73
-7.4003583e-74
-1.8016452e-86
 1.0945352e-74
-5.4973443e-75
 1.4236725e-75
 3.4585153e-88
-2.1056544e-76
 1.0575729e-76
-2.7388450e-77
-6.6606580e-90
 4.0508341e-78
-2.0345467e-78
 5.2689590e-79
 1.2802916e-91
-7.7929486e-80
 3.9140378e-80
-1.0136363e-80
-2.4668195e-93
 1.4991986e-81
-7.5297814e-82
 1.9500221e-82
 4.7556843e-95
-2.8841396e-83
 1.4485642e-83
-3.7512994e-84
-1.8187376e-96
 5.5396215e-85
-2.7525448e-85
 6.5360438e-86
 6.4607134e-99
 3.5363871e-86
-1.7240911e-85
 3.5255663e-85
 5.8108967e-97
-2.3928834e-84
 9.2405283e-84
-1.8398305e-83
-3.0166475e-95
 1.2439457e-82
-4.8033506e-82
 9.5635931e-82
 1.5697593e-93
-6.4661250e-81
 2.4968183e-80
-4.9712286e-80
-8.1638224e-92
 3.3611411e-79
-1.2978652e-78
 2.5840825e-78
 4.2430277e-90
-1.7471467e-77
 6.7464020e-77
-1.3432258e-76
-2.2043008e-88
 9.0818019e-76
-3.5068312e-75
 6.9821900e-75
 1.1459750e-86
-4.7207898e-74
 1.8228776e-73
-3.6293956e-73
-5.9608717e-85
 2.4539025e-72
-9.4754566e-72
 1.8865875e-71
 3.0980884e-83
-1.2755572e-70
 4.9254145e-70
-9.8066255e-70
-1.6083177e-81
 6.6304437e-69
-2.5602680e-68
 5.0975586e-68
 8.3662883e-80
-3.4465552e-67
 1.3308468e-66
-2.6497498e-66
-8.6983490e-78
 1.7915457e-65
-6.9178432e-65
 1.3773602e-64
 2.2617089e-76
-9.3125908e-64
 3.5959476e-63
-7.1596231e-63
-1.1744084e-74
 4.8407557e-62
-1.8692010e-61
 3.7216266e-61
 6.1103195e-73
-2.5162617e-60
 9.7162492e-60
-1.9345299e-59
-3.1738344e-71
 1.3079720e-58
-5.0505804e-58
 1.0055834e-57
 1.6524513e-69
-6.7989382e-57
 2.6253302e-56
-5.2270990e-56
-8.5727173e-68
 3.5341399e-55
-1.3646666e-54
 2.7170859e-54
 4.4610177e-66
-1.8370728e-53
 7.0936411e-53
-1.4123620e-52
-4.6362679e-64
 9.5492447e-52
-3.6873287e-51
 7.3415652e-51
 1.2049313e-62
-4.9637702e-50
 1.9167016e-49
-3.8162015e-49
-6.2653318e-61
 2.5802056e-48
-9.9631608e-48
 1.9836906e-47
 3.2546868e-59
-1.3412105e-46
 5.1789269e-46
-1.0311375e-45
-1.6925008e-57
 6.9717145e-45
-2.6920457e-44
 5.3599314e-44
 8.7961104e-56
-3.6239503e-43
 1.3993459e-42
-2.7861332e-42
-4.5750215e-54
 1.8837570e-41
-7.2739065e-41
 1.4482533e-40
 2.3774242e-52
-9.7919124e-40
 3.7810320e-39
-7.5281308e-39
-2.4709175e-50
 5.0899107e-38
-1.9654093e-37
 3.9131798e-37
 6.4207934e-49
-2.6457744e-36
 1.0216347e-35
-2.0341007e-35
-3.3368420e-47
 1.3752937e-34
-5.3105351e-34
 1.0573410e-33
 1.7359285e-45
-7.1488813e-33
 2.7604566e-32
-5.4961392e-32
-9.0221200e-44
 3.7160430e-31
-1.4349064e-30
 2.8569351e-30
 9.3775521e-42
-1.9316275e-29
 7.4587527e-29
-1.4850566e-28
-2.4391508e-40
 1.0040747e-27
-3.8771165e-27
 7.7194375e-27
 1.2667127e-38
-5.2192567e-26
 2.0153547e-25
-4.0126224e-25
-1.3173060e-36
 2.7130094e-24
-1.0475967e-23
 2.0857917e-23
 3.4243034e-35
-1.4102430e-22
 5.4454877e-22
-1.0842104e-21
-1.7780185e-33
 7.3305505e-21
-2.8306060e-20
 5.6358085e-20
 9.2493941e-32
-3.8104760e-19
 1.4713706e-18
-2.9295362e-18
-9.6165300e-30
 1.9807145e-17
-7.6482964e-17
 1.5227952e-16
 4.9994344e-28
-1.0295905e-15
 3.9756427e-15
-7.9156057e-15
-2.5988981e-26
 5.3518897e-14
-2.0665694e-13
 4.1145922e-13
 0.0000000e+00
-2.7819531e-12
 1.0742185e-11
-2.1387964e-11
 0.0000000e+00
 1.4460804e-10
-5.5838697e-10
 1.1117626e-09
 3.6496956e-21
-7.5168362e-09
 2.9025380e-08
-5.7790270e-08
-1.8969201e-19
 3.9073087e-07
-1.5087614e-06
 3.0039823e-06
 9.8587805e-18
-3.7185489e-05
-2.4073433e-05
-1.1802429e-04
 1.0000000e-04
 1.7407547e-03
 4.1233273e-03
 6.7673840e-03
 9.5800000e-03
 1.2441692e-02
 1.5433556e-02
 1.8544057e-02
 2.1740000e-02
 2.5078742e-02
 2.8536780e-02
 3.2099753e-02
 3.5780000e-02
 3.9596225e-02
 4.3553876e-02
 4.7629116e-02
 5.1800000e-02
 5.6072577e-02
 6.0449155e-02
 6.4919949e-02
 6.9500000e-02
 7.4224795e-02
 7.9025041e-02
 8.3893239e-02
 8.8860000e-02
 9.3918725e-02
 9.9041230e-02
 1.0424788e-01
 1.0954000e-01
 1.1485805e-01
 1.2022600e-01
 1.2565657e-01
 1.3114000e-01
 1.3665941e-01
 1.4217660e-01
 1.4770917e-01
 1.5328000e-01
 1.5886100e-01
 1.6443320e-01
 1.6999056e-01
 1.7550000e-01
 1.8090866e-01
 1.8627972e-01
 1.9160635e-01
 1.9684000e-01
 2.0197160e-01
 2.0700387e-01
 2.1192814e-01
 2.1670000e-01
 2.2126021e-01
 2.2565177e-01
 2.2989987e-01
 2.3400000e-01
 2.3793512e-01
 2.4164911e-01
 2.4514250e-01
 2.4844000e-01
 2.5153532e-01
 2.5441697e-01
 2.5708650e-01
 2.5950000e-01
 2.6158097e-01
 2.6344344e-01
 2.6510942e-01
 2.6654000e-01
 2.6772865e-01
 2.6862178e-01
 2.6932484e-01
 2.6982000e-01
 2.6983743e-01
 2.6952897e-01
 2.6899895e-01
 2.6828000e-01
 2.6738313e-01
 2.6606679e-01
 2.6445066e-01
 2.6270000e-01
 2.6065522e-01
 2.5828792e-01
 2.5570321e-01
 2.5290000e-01
 2.4970655e-01
 2.4627649e-01
 2.4268073e-01
 2.3890000e-01
 2.3495815e-01
 2.3090961e-01
 2.2663897e-01
 2.2210000e-01
 2.1747873e-01
 2.1276365e-01
 2.0794244e-01
 2.0302000e-01
 1.9799027e-01
 1.9291071e-01
 1.8778250e-01
 1.8258000e-01
 1.7730997e-01
 1.7198441e-01
 1.6663887e-01
 1.6130000e-01
 1.5596009e-01
 1.5062023e-01
 1.4527940e-01
 1.3994000e-01
 1.3461262e-01
 1.2930384e-01
 1.2406717e-01
 1.1892000e-01
 1.1379843e-01
 1.0872487e-01
 1.0371905e-01
 9.8780000e-02
 9.3906656e-02
 8.9118090e-02
 8.4427954e-02
 7.9840000e-02
 7.5353291e-02
 7.0964433e-02
 6.6646109e-02
 6.2400000e-02
 5.8290957e-02
 5.4358882e-02
 5.0566558e-02
 4.6860000e-02
 4.3240047e-02
 3.9748708e-02
 3.6397861e-02
 3.3180000e-02
 3.0097247e-02
 2.7150812e-02
 2.4335613e-02
 2.1640000e-02
 1.9046230e-02
 1.6534052e-02
 1.4138404e-02
 1.1880000e-02
 9.7087712e-03
 7.6085054e-03
 5.6483417e-03
 3.8000000e-03
 1.9826690e-03
 7.4616908e-04
 1.5157558e-04
-6.0000000e-05
-2.2246710e-05
 1.0702631e-05
-2.7717096e-06
 0.0000000e+00
 4.0994417e-07
-2.0589600e-07
 5.3321834e-08
 0.0000000e+00
-7.8864594e-09
 3.9610039e-09
-1.0257994e-09
-4.9873300e-22
 1.5171881e-10
-7.6201344e-11
 1.9734212e-11
 9.6138240e-24
-2.9187493e-12
 1.4659528e-12
-3.7964453e-13
-1.8396497e-25
 5.6150567e-14
-2.8201834e-14
 7.3035585e-15
 3.5568766e-27
-1.0802182e-15
 5.4254367e-16
-1.4050503e-16
 0.0000000e+00
 2.0781116e-17
-1.0437394e-17
 2.7030198e-18
 1.3126645e-30
-3.9978475e-19
 2.0079339e-19
-5.2000388e-20
-2.5322435e-32
 7.6910135e-21
-3.8628405e-21
 1.0003776e-21
 4.8687509e-34
-1.4795885e-22
 7.4312887e-23
-1.9245150e-23
-9.3600195e-36
 2.8464155e-24
-1.4296229e-24
 3.7023601e-25
 0.0000000e+00
-5.4759018e-26
 2.7502923e-26
-7.1225583e-27
 0.0000000e+00
 1.0534479e-27
-5.2909869e-28
 1.3702415e-28
 6.6562368e-41
-2.0274072e-29
 1.0209480e-29
-2.6972577e-30
-1.4785515e-42
 8.0383380e-31
-1.7942625e-30
 3.2332567e-30
 1.0471542e-41
-2.1525286e-29
 8.3092168e-29
-1.6543209e-28
 0.0000000e+00
 1.1185110e-27
-4.3189985e-27
 8.5992356e-27
 0.0000000e+00
-5.8141047e-26
 2.2450483e-25
-4.4699482e-25
-1.4673179e-36
 3.0222160e-24
-1.1669932e-23
 2.3235131e-23
 7.6286085e-35
-1.5709709e-22
 6.0661196e-22
-1.2077798e-21
-3.9634098e-33
 8.1660264e-21
-3.1532152e-20
 6.2781316e-20
 0.0000000e+00
-4.2447627e-19
 1.6390653e-18
-3.2634207e-18
 0.0000000e+00
 2.2064600e-17
-8.5199864e-17
 1.6963509e-16
 5.5697366e-28
-1.1469347e-15
 4.4287538e-15
-8.8177614e-15
-2.8940982e-26
 5.9618542e-14
-2.3021000e-13
 4.5835396e-13
 1.5049724e-24
-3.0990172e-12
 1.1966491e-11
-2.3825588e-11
-7.8191729e-23
 1.6108928e-10
-6.2202733e-10
 1.2384722e-09
 0.0000000e+00
-8.3735434e-09
 3.2333455e-08
-6.4376730e-08
-2.1128932e-19
 4.3526317e-07
-1.6807176e-06
 3.3463515e-06
 1.0981493e-17
-1.4187811e-05
 1.4736498e-04
-8.1445901e-05
-1.1000000e-03
-2.3482941e-03
-3.6512984e-03
-4.9047220e-03
-6.0800000e-03
-7.2454576e-03
-8.2248479e-03
-9.0936347e-03
-1.0000000e-02
-1.0900412e-02
-1.1799112e-02
-1.2657837e-02
-1.3500000e-02
-1.4450622e-02
-1.5438848e-02
-1.6478219e-02
-1.7640000e-02
-1.8922240e-02
-2.0243276e-02
-2.1729764e-02
-2.3520000e-02
-2.5544444e-02
-2.7743301e-02
-3.0108441e-02
-3.2700000e-02
-3.5631680e-02
-3.8990052e-02
-4.2842266e-02
-4.7200000e-02
-5.2014136e-02
-5.7283998e-02
-6.2987494e-02
-6.9200000e-02
-7.6078271e-02
-8.3384549e-02
-9.0987120e-02
-9.8860000e-02
-1.0695079e-01
-1.1527447e-01
-1.2371227e-01
-1.3210000e-01
-1.4035390e-01
-1.4838031e-01
-1.5604634e-01
-1.6328000e-01
-1.6999000e-01
-1.7555456e-01
-1.7988662e-01
-1.8308000e-01
-1.8484866e-01
-1.8497505e-01
-1.8345247e-01
-1.7990000e-01
-1.7349222e-01
-1.6461020e-01
-1.5338171e-01
-1.3960000e-01
-1.2321115e-01
-1.0442210e-01
-8.2211309e-02
-5.6020000e-02
-2.6977905e-02
 5.0169419e-03
 4.0170411e-02
 7.8380000e-02
 1.1965002e-01
 1.6513112e-01
 2.1424276e-01
 2.6584000e-01
 3.1986537e-01
 3.7598717e-01
 4.3383287e-01
 4.9310000e-01
 5.5340310e-01
 6.1385850e-01
 6.7400839e-01
 7.3356000e-01
 7.9202787e-01
 8.4921813e-01
 9.0354227e-01
 9.5374000e-01
 1.0002614e+00
 1.0424961e+00
 1.0796263e+00
 1.1113200e+00
 1.1371038e+00
 1.1537773e+00
 1.1621141e+00
 1.1641600e+00
 1.1593700e+00
 1.1477594e+00
 1.1300114e+00
 1.1056000e+00
 1.0727910e+00
 1.0340811e+00
 9.9062089e-01
 9.4234000e-01
 8.8975408e-01
 8.3334233e-01
 7.7306098e-01
 7.0952000e-01
 6.4453625e-01
 5.7876498e-01
 5.1279129e-01
 4.4720000e-01
 3.8244375e-01
 3.1940869e-01
 2.5848918e-01
 1.9976000e-01
 1.4343233e-01
 8.9767914e-02
 3.8689239e-02
-9.2000000e-03
-5.2511091e-02
-9.2185239e-02
-1.2858525e-01
-1.6144000e-01
-1.9077278e-01
-2.1680049e-01
-2.3860643e-01
-2.5590000e-01
-2.7015951e-01
-2.8141922e-01
-2.8962756e-01
-2.9504000e-01
-2.9780493e-01
-2.9719502e-01
-2.9391283e-01
-2.8898000e-01
-2.8231871e-01
-2.7410700e-01
-2.6464492e-01
-2.5400000e-01
-2.4203194e-01
-2.2928863e-01
-2.1609802e-01
-2.0258000e-01
-1.8889590e-01
-1.7507197e-01
-1.6137404e-01
-1.4806000e-01
-1.3513667e-01
-1.2275152e-01
-1.1103367e-01
-1.0006000e-01
-8.9893920e-02
-8.0609214e-02
-7.2092848e-02
-6.4220000e-02
-5.7026975e-02
-5.0499349e-02
-4.4516989e-02
-3.9100000e-02
-3.4447114e-02
-3.0282138e-02
-2.6514951e-02
-2.3200000e-02
-2.0292496e-02
-1.7719484e-02
-1.5508039e-02
-1.3640000e-02
-1.1960587e-02
-1.0462176e-02
-9.1335795e-03
-7.9400000e-03
-6.8494593e-03
-5.8123739e-03
-4.8098869e-03
-3.8400000e-03
-2.9006558e-03
-2.0168805e-03
-1.1057380e-03
-3.0000000e-04
-5.1873774e-06
 4.2660106e-05
 3.1077139e-05
 0.0000000e+00
-2.1005391e-06
 1.0550037e-06
-2.7321915e-07
-1.3253287e-19
 4.0409932e-08
-2.0296041e-08
 5.2561589e-09
 2.5587171e-21
-7.7740169e-10
 3.9045293e-10
-1.0111739e-10
-4.8958504e-23
 1.4955566e-11
-7.5114890e-12
 1.9452848e-12
 9.4497113e-25
-2.8771347e-13
 1.4450517e-13
-3.7423169e-14
-1.8156614e-26
 5.5349991e-15
-2.7799741e-15
 7.1994268e-16
 0.0000000e+00
-1.0648168e-16
 5.3480827e-17
-1.3850175e-17
-6.7248814e-30
 2.0484826e-18
-1.0288581e-18
 2.6644810e-19
 1.2937319e-31
-3.9408475e-20
 1.9793055e-20
-5.1258984e-21
-2.4849119e-33
 7.5813576e-22
-3.8077654e-22
 9.8611451e-23
 4.7840100e-35
-1.4584930e-23
 7.3253358e-24
-1.8970759e-24
 0.0000000e+00
 2.8058322e-25
-1.4092398e-25
 3.6495731e-26
 1.7754667e-38
-5.3978282e-27
 2.7110795e-27
-7.0210072e-28
-3.3971787e-40
 1.0384281e-28
-5.2155440e-29
 1.3506934e-29
 6.5754215e-42
-1.9977161e-30
 1.0033604e-30
-2.5984486e-31
-1.2656079e-43
 3.8431836e-32
-1.9302534e-32
 4.9988660e-33
 0.0000000e+00
-7.3934729e-34
 3.7133996e-34
-9.6167616e-35
-4.6733304e-47
 1.4223479e-35
-7.1437960e-36
 1.8500617e-36
 8.9551730e-49
-2.7362968e-37
 1.3743154e-37
-3.5591276e-38
-1.7310962e-50
 5.2640567e-39
-2.6438923e-39
 6.8470094e-40
 3.3302648e-52
-1.0126932e-40
 5.0862899e-41
-1.3172199e-41
 0.0000000e+00
 1.9482078e-42
-9.7849469e-43
 2.5340527e-43
 1.2293674e-55
-3.7479400e-44
 1.8824170e-44
-4.8749818e-45
-2.3654229e-57
 7.2102459e-46
-3.6213781e-46
 9.3785479e-47
 4.5626152e-59
-1.3878650e-47
 6.9963461e-48
-1.8631290e-48
-1.0713543e-60
 6.6519331e-49
-1.6721875e-48
 3.0972286e-48
 1.0070332e-59
-2.0711403e-47
 7.9957405e-47
-1.5919276e-46
 0.0000000e+00
 1.0763277e-45
-4.1561129e-45
 8.2749263e-45
 2.7169736e-56
-5.5948331e-44
 2.1603791e-43
-4.3013697e-43
-1.4120759e-54
 2.9082369e-42
-1.1229815e-41
 2.2358848e-41
 7.3409153e-53
-1.5117237e-40
 5.8373436e-40
-1.1622299e-39
-3.8145698e-51
 7.8580550e-39
-3.0342957e-38
 6.0413598e-38
 0.0000000e+00
-4.0846769e-37
 1.5772500e-36
-3.1403449e-36
-1.0312681e-47
 2.1232462e-35
-8.1986659e-35
 1.6323752e-34
 5.3571640e-46
-1.1036795e-33
 4.2617290e-33
-8.4852107e-33
-2.7855571e-44
 5.7370104e-32
-2.2152792e-31
 4.4106772e-31
 1.4478440e-42
-2.9821417e-30
 1.1515190e-29
-2.2927036e-29
 0.0000000e+00
 1.5501400e-28
-5.9856836e-28
 1.1917648e-27
 3.9126329e-39
-8.0577458e-27
 3.1114040e-26
-6.1948843e-26
-2.0338873e-37
 4.1884777e-25
-1.6173315e-24
 3.2201481e-24
 1.0570948e-35
-2.1772026e-23
 8.4070123e-23
-1.6738575e-22
-5.4958337e-34
 1.1317265e-21
-4.3700291e-21
 8.7008389e-21
 0.0000000e+00
-5.8828007e-20
 2.2715744e-19
-4.5227624e-19
-1.4846362e-30
 3.0579246e-18
-1.1807817e-17
 2.3509664e-17
 7.7174578e-29
-1.5895325e-16
 6.1377933e-16
-1.2220502e-15
-4.0118260e-27
 8.2625112e-15
-3.1904717e-14
 6.3523102e-14
 2.0844951e-25
-4.2949163e-13
 1.6584315e-12
-3.3019793e-12
-1.0840698e-23
 2.2325302e-11
-8.6206534e-11
 1.7163940e-10
 0.0000000e+00
-1.1604862e-09
 4.4810813e-09
-8.9219468e-09
-2.9278880e-20
 6.0322958e-08
-2.3293002e-07
 4.6376959e-07
 1.5225668e-18
-3.1356334e-06
 1.2107880e-05
-2.4107097e-05
-7.9125595e-17
 4.4143011e-04
 1.1506232e-03
 1.9927928e-03
 2.8800000e-03
 3.7112698e-03
 4.6254875e-03
 5.6038833e-03
 6.5600000e-03
 7.5184759e-03
 8.4890272e-03
 9.5087130e-03
 1.0600000e-02
 1.1734233e-02
 1.2902600e-02
 1.4104291e-02
 1.5340000e-02
 1.6609831e-02
 1.7910748e-02
 1.9253174e-02
 2.0640000e-02
 2.2057366e-02
 2.3526017e-02
 2.5057221e-02
 2.6640000e-02
 2.8254299e-02
 2.9906393e-02
 3.1619442e-02
 3.3400000e-02
 3.5223767e-02
 3.7084067e-02
 3.8971459e-02
 4.0900000e-02
 4.2921081e-02
 4.5054648e-02
 4.7257210e-02
 4.9480000e-02
 5.1724421e-02
 5.4011712e-02
 5.6424851e-02
 5.8960000e-02
 6.1475908e-02
 6.4038803e-02
 6.6695848e-02
 6.9420000e-02
 7.2169611e-02
 7.4995545e-02
 7.7930725e-02
 8.0960000e-02
 8.4043075e-02
 8.7170343e-02
 9.0385527e-02
 9.3700000e-02
 9.7051725e-02
 1.0046159e-01
 1.0395407e-01
 1.0754000e-01
 1.1121067e-01
 1.1489930e-01
 1.1868059e-01
 1.2260000e-01
 1.2653929e-01
 1.3052484e-01
 1.3457825e-01
 1.3870000e-01
 1.4289292e-01
 1.4712385e-01
 1.5142748e-01
 1.5584000e-01
 1.6032875e-01
 1.6488484e-01
 1.6950911e-01
 1.7420000e-01
 1.7893942e-01
 1.8367449e-01
 1.8843486e-01
 1.9328000e-01
 1.9821713e-01
 2.0322670e-01
 2.0829592e-01
 2.1340000e-01
 2.1849871e-01
 2.2361215e-01
 2.2876082e-01
 2.3396000e-01
 2.3922813e-01
 2.4456138e-01
 2.4988907e-01
 2.5518000e-01
 2.6051036e-01
 2.6589340e-01
 2.7126200e-01
 2.7660000e-01
 2.8199587e-01
 2.8740189e-01
 2.9279987e-01
 2.9820000e-01
 3.0358884e-01
 3.0895077e-01
 3.1426473e-01
 3.1954000e-01
 3.2482120e-01
 3.3008787e-01
 3.3531952e-01
 3.4052000e-01
 3.4569342e-01
 3.5077486e-01
 3.5578970e-01
 3.6078000e-01
 3.6571139e-01
 3.7057443e-01
 3.7537240e-01
 3.8010000e-01
 3.8473661e-01
 3.8927249e-01
 3.9370717e-01
 3.9804000e-01
 4.0228649e-01
 4.0653126e-01
 4.1063599e-01
 4.1450000e-01
 4.1827893e-01
 4.2196440e-01
 4.2554023e-01
 4.2900000e-01
 4.3232156e-01
 4.3551483e-01
 4.3855162e-01
 4.4142000e-01
 4.4416878e-01
 4.4680421e-01
 4.4932988e-01
 4.5170000e-01
 4.5382922e-01
 4.5580647e-01
 4.5766373e-01
 4.5938000e-01
 4.6095147e-01
 4.6235956e-01
 4.6358983e-01
 4.6464000e-01
 4.6552066e-01
 4.6625635e-01
 4.6691505e-01
 4.6736000e-01
 4.6744966e-01
 4.6832020e-01
 4.7007802e-01
 4.7212000e-01
 4.7413416e-01
 4.7592342e-01
 4.7760563e-01
 4.7920000e-01
 4.8042757e-01
 4.8155680e-01
 4.8260776e-01
 4.8344000e-01
 4.8406868e-01
 4.8453792e-01
 4.8492349e-01
 4.8512000e-01
 4.8486108e-01
 4.8443619e-01
 4.8402374e-01
 4.8352000e-01
 4.8272009e-01
 4.8171011e-01
 4.8056341e-01
 4.7928000e-01
 4.7783838e-01
 4.7623056e-01
 4.7452848e-01
 4.7270000e-01
 4.7056916e-01
 4.6830823e-01
 4.6596358e-01
 4.6348000e-01
 4.6085412e-01
 4.5804923e-01
 4.5511293e-01
 4.5210000e-01
 4.4898443e-01
 4.4574945e-01
 4.4238244e-01
 4.3890000e-01
 4.3532838e-01
 4.3156943e-01
 4.2767853e-01
 4.2374000e-01
 4.1970702e-01
 4.1557283e-01
 4.1133598e-01
 4.0700000e-01
 4.0257657e-01
 3.9805082e-01
 3.9343159e-01
 3.8874000e-01
 3.8398196e-01
 3.7915204e-01
 3.7426783e-01
 3.6934000e-01
 3.6434407e-01
 3.5926065e-01
 3.5408479e-01
 3.4884000e-01
 3.4356651e-01
 3.3824941e-01
 3.3289014e-01
 3.2750000e-01
 3.2207566e-01
 3.1661512e-01
 3.1108720e-01
 3.0550000e-01
 2.9992301e-01
 2.9431698e-01
 2.8868002e-01
 2.8304000e-01
 2.7739240e-01
 2.7169667e-01
 2.6601539e-01
 2.6038000e-01
 2.5469788e-01
 2.4901351e-01
 2.4335767e-01
 2.3772000e-01
 2.3208131e-01
 2.2643604e-01
 2.2080854e-01
 2.1522000e-01
 2.0966386e-01
 2.0414495e-01
 1.9864937e-01
 1.9320000e-01
 1.8785549e-01
 1.8251648e-01
 1.7719430e-01
 1.7196000e-01
 1.6680908e-01
 1.6168546e-01
 1.5662707e-01
 1.5166000e-01
 1.4671600e-01
 1.4183951e-01
 1.3705479e-01
 1.3236000e-01
 1.2774069e-01
 1.2310502e-01
 1.1853677e-01
 1.1412000e-01
 1.0976299e-01
 1.0544691e-01
 1.0114585e-01
 9.6900000e-02
 9.2812725e-02
 8.8735828e-02
 8.4679163e-02
 8.0740000e-02
 7.6907513e-02
 7.3107555e-02
 6.9363925e-02
 6.5720000e-02
 6.2141579e-02
 5.8611314e-02
 5.5120464e-02
 5.1680000e-02
 4.8312569e-02
 4.4984098e-02
 4.1727274e-02
 3.8580000e-02
 3.5509856e-02
 3.2498101e-02
 2.9539416e-02
 2.6600000e-02
 2.3643654e-02
 2.0814644e-02
 1.8098398e-02
 1.5400000e-02
 1.2728587e-02
 1.0167925e-02
 7.6613955e-03
 5.1400000e-03
 2.7595211e-03
 9.9327966e-04
 6.1537197e-05
-1.6000000e-04
-3.2745105e-05
-2.3466733e-05
-8.6329744e-05
-4.0000000e-05
-4.5880988e-06
 1.9904813e-06
-5.1548408e-07
-2.4980018e-19
 7.6241644e-08
-3.8292653e-08
 9.9168243e-09
 4.8246997e-21
-1.4667281e-09
 7.3666971e-10
-1.9077874e-10
-9.2495998e-23
 2.8216749e-11
-1.4171968e-11
 3.6701797e-12
 1.7840631e-24
-5.4283061e-13
 2.7263871e-13
-7.0606501e-14
-3.4162559e-26
 1.0442914e-14
-5.2449926e-15
 1.3583198e-15
 6.5915955e-28
-2.0089959e-16
 1.0090257e-16
-2.6131203e-17
-1.2702554e-29
 3.8648834e-18
-1.9411522e-18
 5.0270912e-19
 2.4486242e-31
-7.4352188e-20
 3.7343666e-20
-9.6710609e-21
-4.6937224e-33
 1.4303790e-21
-7.1841321e-22
 1.8605077e-22
 9.0133521e-35
-2.7517468e-23
 1.3820752e-23
-3.5792236e-24
-1.7333369e-36
 5.2937793e-25
-2.6588206e-25
 6.8856698e-26
 3.3553311e-38
-1.0184112e-26
 5.1150088e-27
-1.3246573e-27
-6.4181992e-40
 1.9592080e-28
-9.8401958e-29
 2.5483607e-29
 0.0000000e+00
-3.7691021e-30
 1.8930457e-30
-4.9025075e-31
-2.3762435e-43
 7.2509558e-32
-3.6418198e-32
 9.4313882e-33
 4.5917748e-45
-1.3949306e-33
 7.0060916e-34
-1.8143998e-34
-8.8281803e-47
 2.6835517e-35
-1.3478240e-35
 3.4905216e-36
 1.6946953e-48
-5.1625864e-37
 2.5929284e-37
-6.7150259e-38
-3.2569242e-50
 9.9317250e-39
-4.9882463e-39
 1.2918291e-39
 6.2542694e-52
-1.9106540e-40
 9.5963315e-41
-2.4852061e-41
-1.2027441e-53
 3.6756944e-42
-1.8461314e-42
 4.7810112e-43
 2.3177881e-55
-7.0712592e-44
 3.5515666e-44
-9.1976552e-45
-4.4616769e-57
 1.3603608e-45
-6.8324634e-46
 1.7694345e-46
 8.6154411e-59
-2.6170467e-47
 1.3144216e-47
-3.4040179e-48
-1.6568156e-60
 5.0346448e-49
-2.5286693e-49
 6.5486110e-50
 3.1799608e-62
-9.6855924e-51
 4.8646252e-51
-1.2598144e-51
-6.1355041e-64
 1.8633033e-52
-9.3585108e-53
 2.4236166e-53
 1.1789697e-65
-3.5846017e-54
 1.8003797e-54
-4.6625260e-55
-2.2599451e-67
 6.8960160e-56
-3.4635500e-56
 8.9697146e-57
 4.3620264e-69
-1.3266477e-57
 6.6631381e-58
-1.7255835e-58
-8.3920789e-71
 2.5521898e-59
-1.2818470e-59
 3.3196580e-60
 1.6155331e-72
-4.9098738e-61
 2.4660026e-61
-6.3863203e-62
-3.1015701e-74
 9.4455596e-63
-4.7440678e-63
 1.2285931e-63
 5.9427894e-76
-1.8171260e-64
 9.1265838e-65
-2.3635534e-65
-1.1468832e-77
 3.4957664e-66
-1.7557618e-66
 4.5469771e-67
 2.2065411e-79
-6.7251157e-68
 3.3777147e-68
-8.7474230e-69
-4.2438672e-81
 1.2937701e-69
-6.4980092e-70
 1.6828193e-70
 8.1807456e-83
-2.4889403e-71
 1.2500796e-71
-3.2373887e-72
-1.5747408e-84
 4.7881951e-73
-2.4048890e-73
 6.2280516e-74
 3.0267639e-86
-9.2114753e-75
 4.6264981e-75
-1.1981455e-75
-5.8070884e-88
 1.7720932e-76
-8.9004046e-77
 2.3049787e-77
 1.1184879e-89
-3.4091327e-78
 1.7122497e-78
-4.4342918e-79
-2.1560738e-91
 6.5584508e-80
-3.2940066e-80
 8.5306403e-81
 4.1236385e-93
-1.2617073e-81
 6.3369725e-82
-1.6411149e-82
-7.9581007e-95
 2.4272578e-83
-1.2190979e-83
 3.1571254e-84
 1.5340917e-96
-4.6673174e-85
 2.3367394e-85
-5.9034625e-86
-2.4063816e-98
-2.5272281e-87
 3.9934295e-86
-8.7324935e-86
-2.9007667e-97
 5.9814760e-85
-2.3102573e-84
 4.5999312e-84
 1.5095223e-95
-3.1101148e-83
 1.2009344e-82
-2.3910910e-82
-7.8487967e-94
 1.6166616e-81
-6.2425488e-81
 1.2429073e-80
 4.0788430e-92
-8.4035300e-80
 3.2449244e-79
-6.4607270e-79
-2.1203356e-90
 4.3682189e-78
-1.6867365e-77
 3.3583351e-77
 1.1025274e-88
-2.2706335e-76
 8.7677847e-76
-1.7456882e-75
-5.7322880e-87
 1.1802926e-74
-4.5575613e-74
 9.0742203e-74
 2.9778621e-85
-6.1352509e-73
 2.3690551e-72
-4.7168489e-72
-3.0967706e-83
 3.1891502e-71
-1.2314529e-70
 2.4518540e-70
 8.0500223e-82
-1.6577446e-69
 6.4011860e-69
-1.2744924e-68
-4.1831441e-80
 8.6170825e-68
-3.3273853e-67
 6.6249086e-67
 2.1741554e-78
-4.4792252e-66
 1.7296002e-65
-3.4436780e-65
-1.1303017e-76
 2.3283354e-64
-8.9905937e-64
 1.7900501e-63
 5.8773480e-75
-1.2102865e-62
 4.6733791e-62
-9.3048166e-62
-3.0551597e-73
 6.2911613e-61
-2.4292581e-60
 4.8367146e-60
 1.5881850e-71
-3.2701936e-59
 1.2627469e-58
-2.5141611e-58
-8.2553019e-70
 1.6998716e-57
-6.5638545e-57
 1.3068801e-56
 4.2893260e-68
-8.8360619e-56
 3.4119416e-55
-6.7932624e-55
-2.2295593e-66
 4.5930523e-54
-1.7735532e-53
 3.5311895e-53
 1.1589151e-64
-2.3875036e-52
 9.2190649e-52
-1.8355392e-51
-6.0246567e-63
 1.2410426e-50
-4.7921402e-50
 9.5412728e-50
 3.1320436e-61
-6.4510339e-49
 2.4909910e-48
-4.9596263e-48
-1.6283391e-59
 3.3532966e-47
-1.2948361e-46
 2.5780516e-46
 8.4612298e-58
-1.7430691e-45
 6.7306567e-45
-1.3400909e-44
-8.7969261e-56
 9.0606061e-44
-3.4986467e-43
 6.9658944e-43
 2.2867277e-54
-4.7097721e-42
 1.8186232e-41
-3.6209250e-41
-1.1890462e-52
 2.4481754e-40
-9.4533420e-40
 1.8821844e-39
 6.1783629e-51
-1.2725802e-38
 4.9139192e-38
-9.7837380e-38
-3.2110809e-49
 6.6149691e-37
-2.5542927e-36
 5.0856616e-36
 3.3394694e-47
-3.4385113e-35
 1.3277408e-34
-2.6435656e-34
-8.6782414e-46
 1.7873644e-33
-6.9016978e-33
 1.3741456e-32
 4.5101632e-44
-9.2908564e-32
 3.5875551e-31
-7.1429134e-31
-2.3443880e-42
 4.8294580e-30
-1.8648385e-29
 3.7129408e-29
 1.2182897e-40
-2.5103891e-28
 9.6935726e-28
-1.9300149e-27
-6.3359146e-39
 1.3049194e-26
-5.0387929e-26
 1.0032365e-25
 3.2936411e-37
-6.7830703e-25
 2.6192030e-24
-5.2148996e-24
-1.7119110e-35
 3.5258916e-23
-1.3614817e-22
 2.7107446e-22
 8.8962556e-34
-1.8327853e-21
 7.0770854e-21
-1.4090657e-20
-4.6237110e-32
 9.5269579e-20
-3.6787229e-19
 7.3244308e-19
 2.4038170e-30
-4.9521853e-18
 1.9122282e-17
-3.8072950e-17
-1.2502625e-28
 2.5741837e-16
-9.9399080e-16
 1.9790609e-15
 6.4985377e-27
-1.3380803e-14
 5.1668399e-14
-1.0287310e-13
-3.3761377e-25
 6.9554433e-13
-2.6857628e-12
 5.3474219e-12
 1.7552111e-23
-3.6154924e-11
 1.3960800e-10
-2.7796307e-10
-9.1242389e-22
 1.8793605e-09
-7.2569300e-09
 1.4448732e-08
 9.4867690e-20
-9.7690592e-08
 3.7722075e-07
-7.5105610e-07
-2.4646951e-18
 5.0780314e-06
-2.9608222e-05
-1.0689703e-04
 2.0000000e-05
 8.4166506e-04
 2.4942503e-03
 4.8887717e-03
 7.7000000e-03
 1.0508339e-02
 1.3428591e-02
 1.6488582e-02
 1.9620000e-02
 2.2839702e-02
 2.6189035e-02
 2.9677469e-02
 3.3300000e-02
 3.7059638e-02
 4.0936600e-02
 4.4918949e-02
 4.9000000e-02
 5.3178510e-02
 5.7492749e-02
 6.1929368e-02
 6.6460000e-02
 7.1092844e-02
 7.5825474e-02
 8.0624214e-02
 8.5500000e-02
 9.0523599e-02
 9.5627582e-02
 1.0078809e-01
 1.0602000e-01
 1.1131033e-01
 1.1662527e-01
 1.2200625e-01
 1.2748000e-01
 1.3298272e-01
 1.3849847e-01
 1.4402135e-01
 1.4956000e-01
 1.5513682e-01
 1.6072437e-01
 1.6629240e-01
 1.7182000e-01
 1.7729113e-01
 1.8269659e-01
 1.8807153e-01
 1.9340000e-01
 1.9858068e-01
 2.0365022e-01
 2.0862820e-01
 2.1350000e-01
 2.1824078e-01
 2.2278459e-01
 2.2712827e-01
 2.3130000e-01
 2.3530280e-01
 2.3913870e-01
 2.4280044e-01
 2.4628000e-01
 2.4956227e-01
 2.5257813e-01
 2.5533287e-01
 2.5786000e-01
 2.6014994e-01
 2.6220354e-01
 2.6406023e-01
 2.6570000e-01
 2.6701206e-01
 2.6802798e-01
 2.6882749e-01
 2.6946000e-01
 2.6987153e-01
 2.6984665e-01
 2.6943383e-01
 2.6880000e-01
 2.6796976e-01
 2.6688631e-01
 2.6550636e-01
 2.6390000e-01
 2.6216446e-01
 2.5998031e-01
 2.5743671e-01
 2.5474000e-01
 2.5178504e-01
 2.4856746e-01
 2.4513567e-01
 2.4150000e-01
 2.3762712e-01
 2.3361178e-01
 2.2945263e-01
 2.2510000e-01
 2.2057425e-01
 2.1594516e-01
 2.1120258e-01
 2.0632000e-01
 2.0133670e-01
 1.9628999e-01
 1.9119802e-01
 1.8606000e-01
 1.8085662e-01
 1.7555049e-01
 1.7019728e-01
 1.6486000e-01
 1.5952046e-01
 1.5417957e-01
 1.4884050e-01
 1.4350000e-01
 1.3815693e-01
 1.3283931e-01
 1.2756962e-01
 1.2236000e-01
 1.1720989e-01
 1.1208624e-01
 1.0702451e-01
 1.0206000e-01
 9.7159631e-02
 9.2323684e-02
 8.7561143e-02
 8.2880000e-02
 7.8297094e-02
 7.3857206e-02
 6.9519816e-02
 6.5240000e-02
 6.1052706e-02
 5.6974084e-02
 5.3056229e-02
 4.9300000e-02
 4.5620948e-02
 4.2070407e-02
 3.8652511e-02
 3.5340000e-02
 3.2140518e-02
 2.9062241e-02
 2.6153189e-02
 2.3420000e-02
 2.0781811e-02
 1.8223037e-02
 1.5741042e-02
 1.3360000e-02
 1.1123442e-02
 8.9748090e-03
 6.9394875e-03
 5.0400000e-03
 3.2188793e-03
 1.5643941e-03
 3.8373398e-04
-1.0000000e-04
-6.1417354e-05
 9.1986726e-06
-3.0296590e-06
-1.4710455e-18
 4.4809567e-07
-2.2505774e-07
 5.8284236e-08
 2.8319361e-20
-8.6204136e-09
 4.3296352e-09
-1.1212655e-09
-5.4481159e-22
 1.6583854e-10
-8.3293030e-11
 2.1570779e-11
 2.0942890e-23
-3.1903830e-12
 1.6023818e-12
-4.1497619e-13
-2.0117032e-25
 6.1376225e-14
-3.0826440e-14
 7.9832649e-15
 3.8877489e-27
-1.1807489e-15
 5.9303555e-16
-1.5358114e-16
-7.4640126e-29
 2.2715112e-17
-1.1408751e-17
 2.9545766e-18
 1.4313092e-30
-4.3699075e-19
 2.1948025e-19
-5.6839809e-20
-5.5141377e-32
 8.4067785e-21
-4.2223361e-21
 1.0934778e-21
 5.3001592e-34
-1.6172865e-22
 8.1228823e-23
-2.1036202e-23
-1.0226688e-35
 3.1113174e-24
-1.5626709e-24
 4.0469206e-25
 1.9650504e-37
-5.9855171e-26
 3.0062485e-26
-7.7854199e-27
-3.7709859e-39
 1.1514871e-27
-5.7833903e-28
 1.4977574e-28
 7.2880650e-41
-2.2157005e-29
 1.1144661e-29
-2.9184822e-30
-1.5175816e-42
 6.7718565e-31
-1.1833430e-30
 1.9853362e-30
 6.3607561e-42
-1.3056649e-29
 5.0389177e-29
-1.0031900e-28
-3.2924862e-40
 6.7826855e-28
-2.6190539e-27
 5.2146026e-27
 1.7115198e-38
-3.5256908e-26
 1.3614041e-25
-2.7105902e-25
-8.8953889e-37
 1.8326809e-24
-7.0766823e-24
 1.4089854e-23
 9.2502415e-35
-9.5264152e-23
 3.6785134e-22
-7.3240136e-22
-2.4041769e-33
 4.9519032e-21
-1.9121193e-20
 3.8070781e-20
 1.2493585e-31
-2.5740370e-19
 9.9393419e-19
-1.9789482e-18
-6.4951651e-30
 1.3380041e-17
-5.1665456e-17
 1.0286724e-16
 3.3761732e-28
-6.9550471e-16
 2.6856098e-15
-5.3471173e-15
-3.5100892e-26
 3.6152865e-14
-1.3960004e-13
 2.7794723e-13
 9.1254565e-25
-1.8792535e-12
 7.2565167e-12
-1.4447909e-11
-4.7439139e-23
 9.7685028e-11
-3.7719927e-10
 7.5101332e-10
 2.4658823e-21
-5.0777422e-09
 1.9607105e-08
-3.9038245e-08
-1.2813101e-19
 2.6394491e-07
-1.0191923e-06
 2.0292377e-06
 1.3324064e-17
-1.3720058e-05
 6.0478392e-05
-3.6063235e-06
-5.0000000e-04
-1.4518210e-03
-2.7738572e-03
-4.1257504e-03
-5.3000000e-03
-6.4644030e-03
-7.5474056e-03
-8.5086220e-03
-9.4000000e-03
-1.0297350e-02
-1.1206053e-02
-1.2088094e-02
-1.2940000e-02
-1.3828716e-02
-1.4785348e-02
-1.5764251e-02
-1.6800000e-02
-1.8041917e-02
-1.9360849e-02
-2.0767423e-02
-2.2360000e-02
-2.4163771e-02
-2.6218010e-02
-2.8462268e-02
-3.0900000e-02
-3.3691967e-02
-3.6822614e-02
-4.0302464e-02
-4.4200000e-02
-4.8602399e-02
-5.3601050e-02
-5.9134613e-02
-6.5120000e-02
-7.1582652e-02
-7.8500273e-02
-8.5821734e-02
-9.3500000e-02
-1.0149720e-01
-1.0972976e-01
-1.1809834e-01
-1.2650000e-01
-1.3485004e-01
-1.4312465e-01
-1.5110824e-01
-1.5858000e-01
-1.6548916e-01
-1.7166827e-01
-1.7691254e-01
-1.8116000e-01
-1.8433902e-01
-1.8554036e-01
-1.8467612e-01
-1.8202000e-01
-1.7736788e-01
-1.7054575e-01
-1.6157481e-01
-1.5000000e-01
-1.3489742e-01
-1.1700825e-01
-9.6508407e-02
-7.3060000e-02
-4.6634006e-02
-1.7472977e-02
 1.5339454e-02
 5.2300000e-02
 9.2324467e-02
 1.3544055e-01
 1.8169961e-01
 2.3088000e-01
 2.8280484e-01
 3.3784942e-01
 3.9518741e-01
 4.5374000e-01
 5.1332159e-01
 5.7351223e-01
 6.3396089e-01
 6.9420000e-01
 7.5347735e-01
 8.1121222e-01
 8.6686577e-01
 9.1982000e-01
 9.6953662e-01
 1.0160447e+00
 1.0572291e+00
 1.0914200e+00
 1.1195719e+00
 1.1412826e+00
 1.1560632e+00
 1.1641200e+00
 1.1656251e+00
 1.1580159e+00
 1.1424328e+00
 1.1210800e+00
 1.0935373e+00
 1.0599973e+00
 1.0211013e+00
 9.7670000e-01
 9.2595930e-01
 8.7093778e-01
 8.1271757e-01
 7.5156000e-01
 6.8813309e-01
 6.2288564e-01
 5.5671609e-01
 4.9072000e-01
 4.2564479e-01
 3.6171653e-01
 2.9924364e-01
 2.3852000e-01
 1.7986832e-01
 1.2451478e-01
 7.2417799e-02
 2.3120000e-02
-2.3009700e-02
-6.5770221e-02
-1.0532418e-01
-1.4120000e-01
-1.7223641e-01
-1.9950577e-01
-2.2345373e-01
-2.4390000e-01
-2.6099312e-01
-2.7508462e-01
-2.8547336e-01
-2.9194000e-01
-2.9579020e-01
-2.9711150e-01
-2.9595580e-01
-2.9266000e-01
-2.8750312e-01
-2.8011748e-01
-2.7103598e-01
-2.6096000e-01
-2.4983680e-01
-2.3781683e-01
-2.2504658e-01
-2.1170000e-01
-1.9804592e-01
-1.8427231e-01
-1.7053326e-01
-1.5698000e-01
-1.4373205e-01
-1.3079073e-01
-1.1852005e-01
-1.0722000e-01
-9.6719720e-02
-8.6929725e-02
-7.7815898e-02
-6.9340000e-02
-6.1512490e-02
-5.4613551e-02
-4.8462021e-02
-4.2780000e-02
-3.7648284e-02
-3.3053148e-02
-2.8895884e-02
-2.5200000e-02
-2.2125471e-02
-1.9437775e-02
-1.7032034e-02
-1.4920000e-02
-1.3055957e-02
-1.1390042e-02
-9.9483248e-03
-8.7200000e-03
-7.5844635e-03
-6.5100662e-03
-5.4803876e-03
-4.4800000e-03
-3.5113188e-03
-2.5965164e-03
-1.6987069e-03
-8.6000000e-04
-2.7102088e-04
 2.6417424e-05
 7.1581676e-05
 3.6740901e-17
-5.5954185e-06
 2.8103200e-06
-7.2780149e-07
-7.0568551e-19
 1.0764403e-07
-5.4064617e-08
 1.4001362e-08
 0.0000000e+00
-2.0708436e-09
 1.0400890e-09
-2.6935662e-10
-2.6156377e-22
 3.9838653e-11
-2.0009114e-11
 5.1818521e-12
 0.0000000e+00
-7.6641149e-13
 3.8493305e-13
-9.9687882e-14
-9.6780132e-26
 1.4744137e-14
-7.4052984e-15
 1.9177842e-15
 1.8611564e-27
-2.8364604e-16
 1.4246229e-16
-3.6894114e-17
 0.0000000e+00
 5.4567503e-18
-2.7406734e-18
 7.0976478e-19
 6.8914889e-31
-1.0497634e-19
 5.2724763e-20
-1.3654374e-20
 0.0000000e+00
 2.0195230e-21
-1.0143130e-21
 2.6268130e-22
 2.5483905e-34
-3.8851353e-23
 1.9513238e-23
-5.0534330e-24
-4.9111214e-36
 7.4741792e-25
-3.7539346e-25
 9.7217371e-26
 0.0000000e+00
-1.4378741e-26
 7.2217768e-27
-1.8702567e-27
-1.8173143e-39
 2.7661659e-28
-1.3893172e-28
 3.5979787e-29
 0.0000000e+00
-5.3215186e-30
 2.6727527e-30
-6.9217506e-31
-6.7154707e-43
 1.0237477e-31
-5.1418113e-32
 1.3315985e-32
 1.2914367e-44
-1.9694742e-33
 9.8917583e-34
-2.5617141e-34
 0.0000000e+00
 3.7888521e-35
-1.9029652e-35
 4.9281965e-36
 4.7819310e-48
-7.2889507e-37
 3.6609029e-37
-9.4808085e-38
 0.0000000e+00
 1.4022401e-38
-7.0428034e-39
 1.8239072e-39
 1.7704393e-51
-2.6976135e-40
 1.3548865e-40
-3.5088119e-41
-3.4077750e-53
 5.1896382e-42
-2.6065153e-42
 6.7502125e-43
 0.0000000e+00
-9.9837671e-44
 5.0143846e-44
-1.2985982e-44
-1.2610151e-56
 1.9206658e-45
-9.6466168e-46
 2.4982299e-46
 0.0000000e+00
-3.6950457e-47
 1.8561553e-47
-4.8130364e-48
-4.7115693e-60
 7.5797542e-49
-5.3905935e-49
 4.5490812e-49
 2.4692925e-60
-2.4642648e-48
 9.4695335e-48
-1.8842186e-47
-1.2371155e-58
 1.2738379e-46
-4.9187668e-46
 9.7933874e-46
 6.4299738e-57
-6.6214930e-45
 2.5568118e-44
-5.0906772e-44
 0.0000000e+00
 3.4419025e-43
-1.3290503e-42
 2.6461728e-42
 1.7371927e-53
-1.7891272e-41
 6.9085045e-41
-1.3755008e-40
-9.0299356e-52
 9.3000194e-40
-3.5910933e-39
 7.1499580e-39
 4.6933748e-50
-4.8342210e-38
 1.8666777e-37
-3.7166027e-37
-2.4402299e-48
 2.5128649e-36
-9.7031328e-36
 1.9319184e-35
 0.0000000e+00
-1.3062063e-34
 5.0437624e-34
-1.0042259e-33
-6.5928290e-45
 6.7897600e-33
-2.6217861e-32
 5.2200428e-32
 3.4273294e-43
-3.5293690e-31
 1.3628244e-30
-2.7134180e-30
-1.7812642e-41
 1.8345929e-29
-7.0840651e-29
 1.4104554e-28
 9.2592221e-40
-9.5363537e-28
 3.6823510e-27
-7.3316545e-27
 0.0000000e+00
 4.9570694e-26
-1.9141141e-25
 3.8110499e-25
 2.5023548e-36
-2.5767224e-24
 9.9497111e-24
-1.9810128e-23
 0.0000000e+00
 1.3394000e-22
-5.1719357e-22
 1.0297455e-21
 6.7620171e-33
-6.9623030e-21
 2.6884116e-20
-5.3526958e-20
-3.5131920e-31
 3.6190582e-19
-1.3974568e-18
 2.7823720e-18
 0.0000000e+00
-1.8812140e-17
 7.2640871e-17
-1.4462982e-16
-9.4948056e-28
 9.7786939e-16
-3.7759278e-15
 7.5179682e-15
 0.0000000e+00
-5.0830396e-14
 1.9627561e-13
-3.9078972e-13
-2.5659143e-24
 2.6422027e-12
-1.0202556e-11
 2.0313547e-11
 1.3336534e-22
-1.3734371e-10
 5.3033662e-10
-1.0559137e-09
 0.0000000e+00
 7.1392308e-09
-2.7567302e-08
 5.4887198e-08
 3.6034543e-19
-3.7110266e-07
 1.4329693e-06
-2.8530784e-06
 0.0000000e+00
 1.1210270e-04
 5.8551316e-04
 1.3908052e-03
 2.3000000e-03
 3.1563433e-03
 4.0268826e-03
 4.9553583e-03
 5.9200000e-03
 6.8827353e-03
 7.8315900e-03
 8.8180622e-03
 9.8800000e-03
 1.0984231e-02
 1.2122939e-02
 1.3293531e-02
 1.4500000e-02
 1.5753491e-02
 1.7043077e-02
 1.8363962e-02
 1.9720000e-02
 2.1111441e-02
 2.2524576e-02
 2.4006701e-02
 2.5580000e-02
 2.7180621e-02
 2.8811495e-02
 3.0480704e-02
 3.2200000e-02
 3.3990354e-02
 3.5832692e-02
 3.7708276e-02
 3.9620000e-02
 4.1589392e-02
 4.3626009e-02
 4.5769589e-02
 4.8000000e-02
 5.0215028e-02
 5.2479862e-02
 5.4834658e-02
 5.7280000e-02
 5.9801048e-02
 6.2303667e-02
 6.4879451e-02
 6.7600000e-02
 7.0339532e-02
 7.3124462e-02
 7.5979179e-02
 7.8920000e-02
 8.1970779e-02
 8.5064333e-02
 8.8228534e-02
 9.1500000e-02
 9.4822753e-02
 9.8190224e-02
 1.0160237e-01
 1.0510000e-01
 1.0874856e-01
 1.1244150e-01
 1.1617370e-01
 1.2000000e-01
 1.2390878e-01
 1.2784693e-01
 1.3184406e-01
 1.3594000e-01
 1.4010177e-01
 1.4431049e-01
 1.4856244e-01
 1.5288000e-01
 1.5730319e-01
 1.6182254e-01
 1.6642047e-01
 1.7108000e-01
 1.7578339e-01
 1.8052254e-01
 1.8525152e-01
 1.9000000e-01
 1.9490199e-01
 1.9989021e-01
 2.0492315e-01
 2.1000000e-01
 2.1510013e-01
 2.2019631e-01
 2.2530943e-01
 2.3048000e-01
 2.3572072e-01
 2.4101188e-01
 2.4633911e-01
 2.5166000e-01
 2.5692906e-01
 2.6229096e-01
 2.6769284e-01
 2.7304000e-01
 2.7840481e-01
 2.8379813e-01
 2.8920002e-01
 2.9460000e-01
 3.0000353e-01
 3.0537860e-01
 3.1071526e-01
 3.1602000e-01
 3.2129977e-01
 3.2658489e-01
 3.3184797e-01
 3.3706000e-01
 3.4224235e-01
 3.4737453e-01
 3.5244183e-01
 3.5746000e-01
 3.6245197e-01
 3.6735942e-01
 3.7217997e-01
 3.7694000e-01
 3.8163249e-01
 3.8624827e-01
 3.9078141e-01
 3.9520000e-01
 3.9946977e-01
 4.0370316e-01
 4.0787624e-01
 4.1190000e-01
 4.1577347e-01
 4.1954481e-01
 4.2320414e-01
 4.2672000e-01
 4.3009998e-01
 4.3336408e-01
 4.3651928e-01
 4.3954000e-01
 4.4238530e-01
 4.4508808e-01
 4.4766403e-01
 4.5010000e-01
 4.5237756e-01
 4.5449096e-01
 4.5646466e-01
 4.5830000e-01
 4.5995014e-01
 4.6142466e-01
 4.6274313e-01
 4.6392000e-01
 4.6495475e-01
 4.6580697e-01
 4.6653614e-01
 4.6710000e-01
 4.6736685e-01
 4.6787558e-01
 4.6894029e-01
 4.7064000e-01
 4.7288225e-01
 4.7482813e-01
 4.7647258e-01
 4.7812000e-01
 4.7956944e-01
 4.8079676e-01
 4.8194597e-01
 4.8300000e-01
 4.8369810e-01
 4.8422018e-01
 4.8464963e-01
 4.8496000e-01
 4.8509392e-01
 4.8474905e-01
 4.8427197e-01
 4.8392000e-01
 4.8324440e-01
 4.8234930e-01
 4.8132092e-01
 4.8016000e-01
 4.7887613e-01
 4.7735714e-01
 4.7567124e-01
 4.7390000e-01
 4.7195237e-01
 4.6981684e-01
 4.6755974e-01
 4.6520000e-01
 4.6265208e-01
 4.5991954e-01
 4.5705396e-01
 4.5410000e-01
 4.5106751e-01
 4.4795449e-01
 4.4468708e-01
 4.4124000e-01
 4.3770255e-01
 4.3404964e-01
 4.3026419e-01
 4.2638000e-01
 4.2243870e-01
 4.1836918e-01
 4.1416907e-01
 4.0988000e-01
 4.0551230e-01
 4.0107027e-01
 3.9653710e-01
 3.9190000e-01
 3.8717297e-01
 3.8237194e-01
 3.7751704e-01
 3.7262000e-01
 3.6767727e-01
 3.6268615e-01
 3.5757828e-01
 3.5234000e-01
 3.4707875e-01
 3.4178846e-01
 3.3646034e-01
 3.3110000e-01
 3.2570592e-01
 3.2027399e-01
 3.1477947e-01
 3.0922000e-01
 3.0364074e-01
 2.9805643e-01
 2.9244355e-01
 2.8680000e-01
 2.8116415e-01
 2.7549437e-01
 2.6980539e-01
 2.6414000e-01
 2.5849081e-01
 2.5279864e-01
 2.4711256e-01
 2.4148000e-01
 2.3584128e-01
 2.3019874e-01
 2.2456186e-01
 2.1894000e-01
 2.1335236e-01
 2.0781165e-01
 2.0230861e-01
 1.9684000e-01
 1.9142887e-01
 1.8608041e-01
 1.8073146e-01
 1.7540000e-01
 1.7022659e-01
 1.6510461e-01
 1.6000804e-01
 1.5498000e-01
 1.5001164e-01
 1.4506012e-01
 1.4019777e-01
 1.3548000e-01
 1.3082489e-01
 1.2619643e-01
 1.2158503e-01
 1.1704000e-01
 1.1264523e-01
 1.0831575e-01
 1.0400653e-01
 9.9740000e-02
 9.5553805e-02
 9.1459722e-02
 8.7368695e-02
 8.3300000e-02
 7.9443162e-02
 7.5646192e-02
 7.1867905e-02
 6.8160000e-02
 6.4518027e-02
 6.0948276e-02
 5.7431478e-02
 5.3960000e-02
 5.0560692e-02
 4.7210971e-02
 4.3902437e-02
 4.0660000e-02
 3.7522250e-02
 3.4486252e-02
 3.1512119e-02
 2.8560000e-02
 2.5618534e-02
 2.2693900e-02
 1.9885191e-02
 1.7200000e-02
 1.4488967e-02
 1.1873453e-02
 9.3320142e-03
 6.8200000e-03
 4.3923581e-03
 1.8865594e-03
 2.4382087e-04
-4.0000000e-05
-7.8462961e-05
-5.7038945e-05
-4.8199413e-05
-8.0000000e-05
-2.0096627e-05
 9.4657894e-06
-2.4513990e-06
-2.3786528e-18
 3.6256927e-07
-1.8210178e-07
 4.7159735e-08
 4.5840068e-20
-6.9750665e-09
 3.5032534e-09
-9.0725363e-10
-8.8226952e-22
 1.3418554e-10
-6.7395191e-11
 1.7453642e-11
 1.6940659e-23
-2.5814461e-12
 1.2965410e-12
-3.3577119e-13
 0.0000000e+00
 4.9661568e-14
-2.4942709e-14
 6.4595280e-15
 6.2710630e-27
-9.5538360e-16
 4.7984501e-16
-1.2426767e-16
 0.0000000e+00
 1.8379561e-17
-9.2312038e-18
 2.3906473e-18
 2.3198822e-30
-3.5358391e-19
 1.7758885e-19
-4.5991001e-20
-4.4649527e-32
 6.8022072e-21
-3.4164341e-21
 8.8476965e-22
 0.0000000e+00
-1.3086009e-22
 6.5724972e-23
-1.7021098e-23
-1.6524479e-35
 2.5174715e-24
-1.2644096e-24
 3.2744995e-25
 0.0000000e+00
-4.8430832e-26
 2.4324567e-26
-6.2994450e-27
-6.1219746e-39
 9.3170684e-28
-4.6795327e-28
 1.2118801e-28
 1.1769637e-40
-1.7924070e-29
 9.0024318e-30
-2.3314011e-30
 0.0000000e+00
 3.4482123e-31
-1.7318776e-31
 4.4851230e-32
 4.3550114e-44
-6.6336317e-33
 3.3317665e-33
-8.6284288e-34
 0.0000000e+00
 1.2761705e-34
-6.4096145e-35
 1.6599273e-35
 1.6114932e-47
-2.4550824e-36
 1.2330744e-36
-3.1933494e-37
-3.1009202e-49
 4.7230596e-38
-2.3721745e-38
 6.1433292e-39
 5.9784401e-51
-9.0861685e-40
 4.5635623e-40
-1.1818467e-40
-1.1466161e-52
 1.7479868e-41
-8.7793293e-42
 2.2736233e-42
 0.0000000e+00
-3.3627571e-43
 1.6889574e-43
-4.3739706e-44
-4.2447106e-56
 6.4692340e-45
-3.2491971e-45
 8.4145951e-46
 8.1668264e-58
-1.2445439e-46
 6.2507685e-47
-1.6187902e-47
-1.5739748e-59
 2.3942394e-48
-1.2025157e-48
 3.1142103e-49
 3.0218962e-61
-4.6060106e-50
 2.3133861e-50
-5.9910824e-51
 0.0000000e+00
 8.8609908e-52
-4.4504660e-52
 1.1525576e-52
 1.1194135e-64
-1.7046674e-53
 8.5617559e-54
-2.2172773e-54
-2.1497965e-66
 3.2794197e-55
-1.6471009e-55
 4.2655729e-56
 4.1424414e-68
-6.3089104e-57
 3.1686740e-57
-8.2060607e-58
-7.9655202e-70
 1.2137010e-58
-6.0958590e-59
 1.5786726e-59
 0.0000000e+00
-2.3349042e-60
 1.1727144e-60
-3.0370325e-61
-2.9498875e-73
 4.4918623e-62
-2.2560547e-62
 5.8426086e-63
 5.6668742e-75
-8.6413936e-64
 4.3401725e-64
-1.1239944e-64
-1.0910590e-76
 1.6624215e-65
-8.3495745e-66
 2.1623277e-66
 2.1003162e-78
-3.1981476e-67
 1.6062817e-67
-4.1598615e-68
 0.0000000e+00
 6.1525600e-69
-3.0901464e-69
 8.0026942e-70
 7.7590577e-82
-1.1836225e-70
 5.9447886e-71
-1.5395492e-71
-1.4943566e-83
 2.2770396e-72
-1.1436517e-72
 2.9617673e-73
 2.8785142e-85
-4.3805429e-74
 2.2001441e-74
-5.6978144e-75
-5.5400589e-87
 8.4272386e-76
-4.2326123e-76
 1.0961391e-76
 0.0000000e+00
-1.6212226e-77
 8.1426515e-78
-2.1087399e-78
-2.0468956e-90
 3.1188896e-79
-1.5664740e-79
 4.0567698e-80
 3.9420021e-92
-6.0000844e-81
 3.0135650e-81
-7.8043678e-82
-7.5784130e-94
 1.1542894e-82
-5.7974603e-83
 1.5013919e-83
 1.4561886e-95
-2.2203716e-84
 1.1143928e-84
-2.8701224e-85
 0.0000000e+00
 3.0383985e-86
 2.6177195e-86
-8.9282674e-86
-6.1718539e-97
 6.4040437e-85
-2.4756069e-84
 4.9297113e-84
 0.0000000e+00
-3.3331411e-83
 1.2870538e-82
-2.5625570e-82
-1.6820357e-93
 1.7325930e-81
-6.6902044e-81
 1.3320367e-80
 8.7455500e-92
-9.0061503e-80
 3.4776192e-79
-6.9240282e-79
 0.0000000e+00
 4.6814656e-78
-1.8076930e-77
 3.5991626e-77
 2.3626485e-88
-2.4334615e-76
 9.3965258e-76
-1.8708722e-75
 0.0000000e+00
 1.2649318e-74
-4.8843857e-74
 9.7249361e-74
 6.3850304e-85
-6.5752120e-73
 2.5389409e-72
-5.0550959e-72
-3.3184862e-83
 3.4178453e-71
-1.3197608e-70
 2.6276774e-70
 1.7247036e-81
-1.7766220e-69
 6.8602175e-69
-1.3658867e-68
-8.9674466e-80
 9.2350168e-68
-3.5659933e-67
 7.0999833e-67
 0.0000000e+00
-4.8004321e-66
 1.8536305e-65
-3.6906254e-65
-2.4228253e-76
 2.4953012e-64
-9.6353126e-64
 1.9184152e-63
 1.2591285e-74
-1.2970766e-62
 5.0085089e-62
-9.9720685e-62
-6.5472560e-73
 6.7423029e-61
-2.6034611e-60
 5.1835572e-60
 3.4031242e-71
-3.5047004e-59
 1.3532989e-58
-2.6944525e-58
 0.0000000e+00
 1.8217700e-57
-7.0345510e-57
 1.4005970e-56
 9.1958639e-68
-9.4696993e-56
 3.6566132e-55
-7.2804098e-55
-4.7800688e-66
 4.9224219e-54
-1.9007354e-53
 3.7844125e-53
 2.4844963e-64
-2.5587124e-52
 9.8801675e-52
-1.9671665e-51
-1.2917618e-62
 1.3300382e-50
-5.1357864e-50
 1.0225481e-49
 0.0000000e+00
-6.9136399e-49
 2.6696209e-48
-5.3152830e-48
-3.4896678e-59
 3.5937627e-47
-1.3876893e-46
 2.7629246e-46
 1.8135758e-57
-1.8680653e-45
 7.2133147e-45
-1.4361893e-44
-9.4282493e-56
 9.7103456e-44
-3.7495359e-43
 7.4654213e-43
 4.9007647e-54
-5.0475116e-42
 1.9490374e-41
-3.8805829e-41
 0.0000000e+00
 2.6237350e-40
-1.0131245e-39
 2.0171566e-39
 1.3245153e-50
-1.3638375e-38
 5.2662982e-38
-1.0485334e-37
-6.8826471e-49
 7.0893310e-37
-2.7374620e-36
 5.4503563e-36
 3.5781280e-47
-3.6850883e-35
 1.4229536e-34
-2.8331367e-34
-1.8605040e-45
 1.9155370e-33
-7.3966212e-33
 1.4726861e-32
 0.0000000e+00
-9.9571072e-32
 3.8448201e-31
-7.6551344e-31
-5.0259845e-42
 5.1757802e-30
-1.9985668e-29
 3.9791972e-29
 2.6129035e-40
-2.6904100e-28
 1.0388702e-27
-2.0684170e-27
-1.3575784e-38
 1.3984956e-26
-5.4001267e-26
 1.0751789e-25
 7.0589846e-37
-7.2694868e-25
 2.8070270e-24
-5.5888621e-24
 0.0000000e+00
 3.7787347e-23
-1.4591140e-22
 2.9051331e-22
 1.9068247e-33
-1.9642151e-21
 7.5845859e-21
-1.5101103e-20
-9.9130234e-32
 1.0210140e-19
-3.9425256e-19
 7.8496685e-19
 5.1544172e-30
-5.3073084e-18
 2.0493548e-17
-4.0803175e-17
-2.6794513e-28
 2.7587794e-16
-1.0652703e-15
 2.1209802e-15
 0.0000000e+00
-1.4340345e-14
 5.5373560e-14
-1.1025016e-13
-7.2361760e-25
 7.4542208e-13
-2.8783599e-12
 5.7308876e-12
 3.7624145e-23
-3.8747608e-11
 1.4961934e-10
-2.9789590e-10
-1.9557991e-21
 2.0141302e-09
-7.7773273e-09
 1.5484856e-08
 1.0164395e-19
-1.0469602e-07
 4.0427140e-07
-8.0491462e-07
-5.2846616e-18
 5.4421790e-06
-2.6014335e-05
-3.2222424e-05
-6.0000000e-05
-1.0101361e-04
 1.0573412e-03
 3.2969960e-03
 5.8600000e-03
 8.6341407e-03
 1.1479274e-02
 1.4418119e-02
 1.7500000e-02
 2.0660698e-02
 2.3950429e-02
 2.7372711e-02
 3.0900000e-02
 3.4538923e-02
 3.8308418e-02
 4.2219636e-02
 4.6260000e-02
 5.0398749e-02
 5.4636817e-02
 5.8979038e-02
 6.3420000e-02
 6.7957393e-02
 7.2637100e-02
 7.7419758e-02
 8.2260000e-02
 8.7193368e-02
 9.2224008e-02
 9.7326989e-02
 1.0250000e-01
 1.0777123e-01
 1.1308198e-01
 1.1842932e-01
 1.2384000e-01
 1.2930694e-01
 1.3481797e-01
 1.4033855e-01
 1.4586000e-01
 1.5142051e-01
 1.5700092e-01
 1.6257742e-01
 1.6814000e-01
 1.7367388e-01
 1.7911412e-01
 1.8449091e-01
 1.8984000e-01
 1.9510665e-01
 2.0027228e-01
 2.0533758e-01
 2.1030000e-01
 2.1513149e-01
 2.1976212e-01
 2.2420374e-01
 2.2850000e-01
 2.3265009e-01
 2.3664502e-01
 2.4043768e-01
 2.4400000e-01
 2.4736280e-01
 2.5052675e-01
 2.5348045e-01
 2.5622000e-01
 2.5873155e-01
 2.6091905e-01
 2.6284121e-01
 2.6458000e-01
 2.6608888e-01
 2.6736275e-01
 2.6835555e-01
 2.6910000e-01
 2.6970035e-01
 2.6988023e-01
 2.6965664e-01
 2.6920000e-01
 2.6853564e-01
 2.6771545e-01
 2.6655771e-01
 2.6500000e-01
 2.6330917e-01
 2.6137367e-01
 2.5910912e-01
 2.5658000e-01
 2.5387377e-01
 2.5080846e-01
 2.4743656e-01
 2.4390000e-01
 2.4018014e-01
 2.3628620e-01
 2.3227278e-01
 2.2810000e-01
 2.2362905e-01
 2.1902650e-01
 2.1434820e-01
 2.0956000e-01
 2.0467343e-01
 1.9967572e-01
 1.9460714e-01
 1.8950000e-01
 1.8432215e-01
 1.7907354e-01
 1.7376426e-01
 1.6842000e-01
 1.6307939e-01
 1.5774023e-01
 1.5240008e-01
 1.4706000e-01
 1.4171889e-01
 1.3638682e-01
 1.3106951e-01
 1.2580000e-01
 1.2063078e-01
 1.1550246e-01
 1.1040869e-01
 1.0538000e-01
 1.0041931e-01
 9.5522834e-02
 9.0703691e-02
 8.5980000e-02
 8.1358004e-02
 7.6837690e-02
 7.2417505e-02
 6.8080000e-02
 6.3803256e-02
 5.9642260e-02
 5.5650096e-02
 5.1820000e-02
 4.8086760e-02
 4.4434770e-02
 4.0896258e-02
 3.7500000e-02
 3.4237737e-02
 3.1109697e-02
 2.8117944e-02
 2.5260000e-02
 2.2526218e-02
 1.9900974e-02
 1.7361904e-02
 1.4920000e-02
 1.2620826e-02
 1.0424669e-02
 8.2986691e-03
 6.2800000e-03
 4.4186230e-03
 2.5562553e-03
 1.0701151e-03
 3.0000000e-04
-2.5472944e-05
-4.7442763e-05
 1.0344161e-05
 1.0047518e-17
-1.5299325e-06
 7.6841434e-07
-1.9899979e-07
-1.9342167e-19
 2.9432667e-08
-1.4782668e-08
 3.8283354e-09
 3.7133924e-21
-5.6622231e-10
 2.8438729e-10
-7.3649083e-11
-7.1574284e-23
 1.0892921e-11
-5.4710103e-12
 1.4168527e-12
 1.3764285e-24
-2.0955677e-13
 1.0525068e-13
-2.7257251e-14
-2.6511139e-26
 4.0314293e-15
-2.0248005e-15
 5.2437190e-16
 0.0000000e+00
-7.7556180e-17
 3.8952883e-17
-1.0087807e-17
-9.7944970e-30
 1.4920170e-18
-7.4937114e-19
 1.9406809e-19
 1.8869553e-31
-2.8703253e-20
 1.4416317e-20
-3.7334599e-21
-3.6238298e-33
 5.5218993e-22
-2.7733947e-22
 7.1823877e-23
 6.9795701e-35
-1.0622967e-23
 5.3354252e-24
-1.3817396e-24
 0.0000000e+00
 2.0436344e-25
-1.0264230e-25
 2.6581749e-26
 2.5804452e-38
-3.9315206e-27
 1.9746212e-27
-5.1137699e-28
-4.9664636e-40
 7.5636280e-29
-3.7995774e-29
 9.8542117e-30
 9.6610942e-42
-1.5659605e-30
 1.1591020e-30
-1.0420190e-30
-5.7821924e-42
 5.7936651e-30
-2.2277529e-29
 4.4330775e-29
 0.0000000e+00
-2.9970462e-28
 1.1572724e-27
-2.3041583e-27
-1.5128612e-38
 1.5578847e-26
-6.0155888e-26
 1.1977190e-25
 7.8624585e-37
-8.0980032e-25
 3.1269489e-24
-6.2258347e-24
-4.0873048e-35
 4.2094038e-23
-1.6254119e-22
 3.2362363e-22
 2.1249941e-33
-2.1880802e-21
 8.4490147e-21
-1.6822203e-20
 0.0000000e+00
 1.1373808e-19
-4.3918622e-19
 8.7443093e-19
 5.7413297e-30
-5.9121918e-18
 2.2829235e-17
-4.5453586e-17
-2.9841914e-28
 3.0732024e-16
-1.1866810e-15
 2.3627120e-15
 1.5512221e-26
-1.5974740e-14
 6.1684584e-14
-1.2281557e-13
-8.0650110e-25
 8.3037917e-13
-3.2064117e-12
 6.3840471e-12
 0.0000000e+00
-4.3163742e-11
 1.6667172e-10
-3.3184763e-10
-2.1783993e-21
 2.2436842e-09
-8.6637231e-09
 1.7249693e-08
 1.1326660e-19
-1.1662841e-07
 4.5034693e-07
-8.9665218e-07
-5.8866106e-18
 6.0624339e-06
-2.0909377e-05
 8.4733664e-05
 1.0000000e-04
-7.1012993e-04
-1.9231628e-03
-3.2158789e-03
-4.5000000e-03
-5.6889934e-03
-6.8671271e-03
-7.9240331e-03
-8.8000000e-03
-9.6965873e-03
-1.0601227e-02
-1.1500340e-02
-1.2380000e-02
-1.3210653e-02
-1.4124081e-02
-1.5108602e-02
-1.6120000e-02
-1.7237569e-02
-1.8486550e-02
-1.9797694e-02
-2.1200000e-02
-2.2893256e-02
-2.4847838e-02
-2.6992858e-02
-2.9300000e-02
-3.1803744e-02
-3.4610873e-02
-3.7818667e-02
-4.1500000e-02
-4.5694863e-02
-5.0359271e-02
-5.5477090e-02
-6.1040000e-02
-6.7057112e-02
-7.3722054e-02
-8.0916080e-02
-8.8420000e-02
-9.6210008e-02
-1.0422894e-01
-1.1247674e-01
-1.2090000e-01
-1.2931497e-01
-1.3762288e-01
-1.4573729e-01
-1.5354000e-01
-1.6091374e-01
-1.6784614e-01
-1.7385276e-01
-1.7856000e-01
-1.8215932e-01
-1.8443296e-01
-1.8512122e-01
-1.8414000e-01
-1.8137778e-01
-1.7593512e-01
-1.6782040e-01
-1.5740000e-01
-1.4448692e-01
-1.2894845e-01
-1.1097593e-01
-9.0100000e-02
-6.5109656e-02
-3.6965325e-02
-5.9964885e-03
 2.8100000e-02
 6.5323425e-02
 1.0548783e-01
 1.4947708e-01
 1.9758000e-01
 2.4836751e-01
 3.0160316e-01
 3.5707163e-01
 4.1438000e-01
 4.7320186e-01
 5.3323771e-01
 5.9373485e-01
 6.5400000e-01
 7.1381152e-01
 7.7266840e-01
 8.3035020e-01
 8.8590000e-01
 9.3742759e-01
 9.8518557e-01
 1.0289480e+00
 1.0678600e+00
 1.1013422e+00
 1.1293495e+00
 1.1493262e+00
 1.1600400e+00
 1.1642104e+00
 1.1617373e+00
 1.1523588e+00
 1.1365600e+00
 1.1146462e+00
 1.0845503e+00
 1.0474940e+00
 1.0056600e+00
 9.5893939e-01
 9.0772812e-01
 8.5255921e-01
 7.9360000e-01
 7.3093658e-01
 6.6630249e-01
 6.0074780e-01
 5.3476000e-01
 4.6900008e-01
 4.0388468e-01
 3.4018626e-01
 2.7856000e-01
 2.1908163e-01
 1.6192414e-01
 1.0735469e-01
 5.5440000e-02
 6.2895712e-03
-3.8549742e-02
-7.9305777e-02
-1.1684000e-01
-1.5088621e-01
-1.8137005e-01
-2.0851305e-01
-2.3190000e-01
-2.5052930e-01
-2.6572257e-01
-2.7801241e-01
-2.8722000e-01
-2.9352201e-01
-2.9721861e-01
-2.9778019e-01
-2.9520000e-01
-2.9081286e-01
-2.8472480e-01
-2.7699884e-01
-2.6792000e-01
-2.5769840e-01
-2.4614167e-01
-2.3359004e-01
-2.2054000e-01
-2.0711022e-01
-1.9347355e-01
-1.7968742e-01
-1.6590000e-01
-1.5245632e-01
-1.3939373e-01
-1.2681029e-01
-1.1486000e-01
-1.0363165e-01
-9.3187644e-02
-8.3607402e-02
-7.4860000e-02
-6.6770401e-02
-5.9348788e-02
-5.2606076e-02
-4.6460000e-02
-4.0823735e-02
-3.5925387e-02
-3.1631333e-02
-2.7720000e-02
-2.4256642e-02
-2.1221113e-02
-1.8541478e-02
-1.6200000e-02
-1.4235885e-02
-1.2501719e-02
-1.0940873e-02
-9.5600000e-03
-8.3245375e-03
-7.2045120e-03
-6.1543730e-03
-5.1400000e-03
-4.1603516e-03
-3.2086568e-03
-2.3070457e-03
-1.4200000e-03
-5.2249375e-04
-5.5334728e-05
 3.4809394e-05
 4.0000000e-05
 8.4643186e-06
-3.9373273e-06
 1.0196677e-06
 9.8948627e-19
-1.5081192e-07
 7.5745855e-08
-1.9616252e-08
-1.9016906e-20
 2.9013026e-09
-1.4571902e-09
 3.7737523e-10
 3.6625705e-22
-5.5814930e-11
 2.8033259e-11
-7.2599019e-12
-7.0409614e-24
 1.0737613e-12
-5.3930065e-13
 1.3966517e-13
 1.3549218e-25
-2.0656898e-14
 1.0375005e-14
-2.6868626e-15
-2.6082039e-27
 3.9739506e-16
-1.9959316e-16
 5.1689558e-17
 5.0204370e-29
-7.6450410e-18
 3.8397506e-18
-9.9439786e-19
-9.6682793e-31
 1.4707443e-19
-7.3868686e-20
 1.9130113e-20
 1.8557953e-32
-2.8294012e-21
 1.4210774e-21
-3.6802294e-22
-3.5714445e-34
 5.4431699e-23
-2.7338526e-23
 7.0799836e-24
 6.8755699e-36
-1.0471508e-24
 5.2593545e-25
-1.3620392e-25
-1.3225722e-37
 2.0144969e-26
-1.0117886e-26
 2.6202756e-27
 2.5414188e-39
-3.8754663e-28
 1.9464675e-28
-5.0408564e-29
-4.8966687e-41
 7.4555780e-30
-3.7445921e-30
 9.6975423e-31
 9.4360972e-43
-1.4342956e-31
 7.2038038e-32
-1.8656022e-32
-1.8133923e-44
 2.7592817e-33
-1.3858596e-33
 3.5890243e-34
 3.4836280e-46
-5.3082747e-35
 2.6661009e-35
-6.9045242e-36
-6.6999583e-48
 1.0211999e-36
-5.1290147e-37
 1.3282845e-37
 1.2904536e-49
-1.9645727e-38
 9.8671403e-39
-2.5553387e-39
-2.4824639e-51
 3.7794227e-40
-1.8982293e-40
 4.9159315e-41
 0.0000000e+00
-7.2708104e-42
 3.6517919e-42
-9.4572133e-43
-9.1771882e-55
 1.3987503e-43
-7.0252758e-44
 1.8193680e-44
 1.7667262e-56
-2.6908999e-45
 1.3515147e-45
-3.5000825e-46
-3.3977464e-58
 5.1769279e-47
-2.6008213e-47
 6.7491996e-48
 6.6431933e-60
-1.1026282e-48
 9.1233975e-49
-9.5013623e-49
 0.0000000e+00
 5.5673869e-48
-2.1433454e-47
 4.2657884e-47
 2.8004963e-58
-2.8840149e-46
 1.1136273e-45
-2.2172599e-45
-1.4556527e-56
 1.4991310e-44
-5.7887184e-44
 1.1525485e-43
 7.5680481e-55
-7.7925973e-43
 3.0090200e-42
-5.9910352e-42
-3.9323051e-53
 4.0506515e-41
-1.5641115e-40
 3.1141857e-40
 0.0000000e+00
-2.1055595e-39
 8.1303708e-39
-1.6187775e-38
-1.0627768e-49
 1.0944859e-37
-4.2262287e-37
 8.4145287e-37
 5.5252761e-48
-5.6892210e-36
 2.1968259e-35
-4.3739362e-35
-2.8714357e-46
 2.9573004e-34
-1.1419268e-33
 2.2736054e-33
 1.4927752e-44
-1.5372273e-32
 5.9358228e-32
-1.1818374e-31
 0.0000000e+00
 7.9906247e-31
-3.0854859e-30
 6.1432808e-30
 4.0329558e-41
-4.1535876e-29
 1.6038591e-28
-3.1933242e-28
-2.0963472e-39
 2.1590665e-27
-8.3369818e-27
 1.6599143e-26
 1.0896362e-37
-1.1222992e-25
 4.3336267e-25
-8.6283608e-25
-5.6652433e-36
 5.8337969e-24
-2.2526522e-23
 4.4850877e-23
 2.9441691e-34
-3.0324521e-22
 1.1709458e-21
-2.3313828e-21
-1.5306367e-32
 1.5762917e-20
-6.0866653e-20
 1.2118705e-19
 7.9572400e-31
-8.1936844e-19
 3.1638950e-18
-6.2993954e-18
-4.1353982e-29
 4.2591396e-17
-1.6446167e-16
 3.2744737e-16
 2.1495387e-27
-2.2139332e-15
 8.5488432e-15
-1.7020964e-14
-1.1176244e-25
 1.1508194e-13
-4.4437538e-13
 8.8476268e-13
 5.8084623e-24
-5.9820467e-12
 2.3098971e-11
-4.5990638e-11
-3.0200960e-22
 3.1095135e-10
-1.2007021e-09
 2.3906284e-09
 1.5700603e-20
-1.6163488e-08
 6.2413411e-08
-1.2426669e-07
-8.1592719e-19
 8.4019043e-07
-3.2442967e-06
 6.4594771e-06
 4.2404968e-17
-4.3673739e-05
 2.5114101e-04
 8.9735646e-04
 1.7000000e-03
 2.5892567e-03
 3.4339115e-03
 4.3060048e-03
 5.2800000e-03
 6.2423244e-03
 7.1979586e-03
 8.1628938e-03
 9.1600000e-03
 1.0230186e-02
 1.1352242e-02
 1.2509458e-02
 1.3700000e-02
 1.4924244e-02
 1.6182974e-02
 1.7473440e-02
 1.8800000e-02
 2.0174129e-02
 2.1580612e-02
 2.3029494e-02
 2.4540000e-02
 2.6108261e-02
 2.7712696e-02
 2.9350359e-02
 3.1040000e-02
 3.2800657e-02
 3.4611675e-02
 3.6460261e-02
 3.8340000e-02
 4.0249130e-02
 4.2235198e-02
 4.4331987e-02
 4.6520000e-02
 4.8737101e-02
 5.0973020e-02
 5.3241104e-02
 5.5600000e-02
 5.8112844e-02
 6.0637767e-02
 6.3174056e-02
 6.5800000e-02
 6.8508435e-02
 7.1248108e-02
 7.4041759e-02
 7.6940000e-02
 7.9942591e-02
 8.3010611e-02
 8.6121658e-02
 8.9300000e-02
 9.2588995e-02
 9.5930098e-02
 9.9316409e-02
 1.0278000e-01
 1.0633373e-01
 1.0998179e-01
 1.1366786e-01
 1.1740000e-01
 1.2128717e-01
 1.2522416e-01
 1.2918846e-01
 1.3322000e-01
 1.3731770e-01
 1.4148930e-01
 1.4570951e-01
 1.4998000e-01
 1.5435921e-01
 1.5882497e-01
 1.6335867e-01
 1.6796000e-01
 1.7262941e-01
 1.7735746e-01
 1.8209756e-01
 1.8684000e-01
 1.9165452e-01
 1.9656218e-01
 2.0154995e-01
 2.0660000e-01
 2.1169811e-01
 2.1679921e-01
 2.2190430e-01
 2.2704000e-01
 2.3221995e-01
 2.3746411e-01
 2.4277893e-01
 2.4812000e-01
 2.5341522e-01
 2.5872719e-01
 2.6409549e-01
 2.6948000e-01
 2.7481683e-01
 2.8019222e-01
 2.8560192e-01
 2.9100000e-01
 2.9640045e-01
 3.0179475e-01
 3.0716761e-01
 3.1250000e-01
 3.1778225e-01
 3.2306062e-01
 3.2833573e-01
 3.3358000e-01
 3.3878856e-01
 3.4397556e-01
 3.4909298e-01
 3.5412000e-01
 3.5912154e-01
 3.6407514e-01
 3.6896095e-01
 3.7378000e-01
 3.7853333e-01
 3.8320197e-01
 3.8777194e-01
 3.9224000e-01
 3.9660746e-01
 4.0087516e-01
 4.0511780e-01
 4.0930000e-01
 4.1322745e-01
 4.1702708e-01
 4.2074850e-01
 4.2436000e-01
 4.2786149e-01
 4.3122934e-01
 4.3446500e-01
 4.3756000e-01
 4.4047912e-01
 4.4326487e-01
 4.4593837e-01
 4.4850000e-01
 4.5093509e-01
 4.5314256e-01
 4.5515916e-01
 4.5706000e-01
 4.5882364e-01
 4.6044471e-01
 4.6190950e-01
 4.6320000e-01
 4.6430949e-01
 4.6524478e-01
 4.6602414e-01
 4.6670000e-01
 4.6726468e-01
 4.6739937e-01
 4.6789518e-01
 4.6944000e-01
 4.7142924e-01
 4.7348043e-01
 4.7535353e-01
 4.7704000e-01
 4.7870318e-01
 4.8004808e-01
 4.8117802e-01
 4.8228000e-01
 4.8318681e-01
 4.8387934e-01
 4.8439529e-01
 4.8480000e-01
 4.8509996e-01
 4.8498621e-01
 4.8457732e-01
 4.8416000e-01
 4.8371480e-01
 4.8301772e-01
 4.8206284e-01
 4.8096000e-01
 4.7972436e-01
 4.7833752e-01
 4.7678278e-01
 4.7510000e-01
 4.7333936e-01
 4.7130601e-01
 4.6906680e-01
 4.6676000e-01
 4.6432305e-01
 4.6174742e-01
 4.5900400e-01
 4.5610000e-01
 4.5311432e-01
 4.5003560e-01
 4.4684184e-01
 4.4352000e-01
 4.4006998e-01
 4.3653412e-01
 4.3284545e-01
 4.2898000e-01
 4.2506123e-01
 4.2106287e-01
 4.1696199e-01
 4.1276000e-01
 4.0845522e-01
 4.0406147e-01
 3.9957116e-01
 3.9498000e-01
 3.9031129e-01
 3.8557568e-01
 3.8076968e-01
 3.7590000e-01
 3.7098892e-01
 3.6601830e-01
 3.6096554e-01
 3.5582000e-01
 3.5059264e-01
 3.4532787e-01
 3.4002747e-01
 3.3468000e-01
 3.2930036e-01
 3.2388760e-01
 3.1844036e-01
 3.1294000e-01
 3.0736320e-01
 3.0178215e-01
 2.9619104e-01
 2.9056000e-01
 2.8491985e-01
 2.7927835e-01
 2.7360011e-01
 2.6790000e-01
 2.6226079e-01
 2.5659601e-01
 2.5090506e-01
 2.4524000e-01
 2.3959853e-01
 2.3396162e-01
 2.2831782e-01
 2.2268000e-01
 2.1707904e-01
 2.1151208e-01
 2.0598065e-01
 2.0048000e-01
 1.9500529e-01
 1.8963010e-01
 1.8429948e-01
 1.7896000e-01
 1.7369415e-01
 1.6852014e-01
 1.6339115e-01
 1.5830000e-01
 1.5331119e-01
 1.4835999e-01
 1.4345444e-01
 1.3864000e-01
 1.3391440e-01
 1.2927763e-01
 1.2465281e-01
 1.2004000e-01
 1.1558167e-01
 1.1121083e-01
 1.0688179e-01
 1.0258000e-01
 9.8298973e-02
 9.4164406e-02
 9.0099863e-02
 8.6020000e-02
 8.2039261e-02
 7.8177541e-02
 7.4372522e-02
 7.0600000e-02
 6.6925684e-02
 6.3328486e-02
 5.9783346e-02
 5.6280000e-02
 5.2818920e-02
 4.9428662e-02
 4.6089716e-02
 4.2800000e-02
 3.9618897e-02
 3.6526113e-02
 3.3496099e-02
 3.0520000e-02
 2.7582808e-02
 2.4623468e-02
 2.1738138e-02
 1.9000000e-02
 1.6298537e-02
 1.3611030e-02
 1.1007896e-02
 8.5000000e-03
 5.9782627e-03
 3.5104871e-03
 1.4900164e-03
 2.8000000e-04
-1.4569573e-04
-8.3856894e-05
-1.2549770e-09
-8.0000000e-05
-5.9584514e-05
-1.2428577e-05
 1.9238128e-06
 1.8651747e-18
-2.8453769e-07
 1.4291013e-07
-3.7010092e-08
-3.5952144e-20
 5.4739038e-09
-2.7492888e-09
 7.1199595e-10
 6.9117888e-22
-1.0530634e-10
 5.2890505e-11
-1.3697297e-11
-1.3298417e-23
 2.0258714e-12
-1.0175015e-12
 2.6350705e-13
 2.5609512e-25
-3.8973484e-14
 1.9574579e-14
-5.0693187e-15
-4.9217246e-27
 7.4976746e-16
-3.7657353e-16
 9.7522977e-17
 9.4673406e-29
-1.4423941e-17
 7.2444788e-18
-1.8761360e-18
-1.8225842e-30
 2.7748615e-19
-1.3936846e-19
 3.6092891e-20
 3.5025424e-32
-5.3382470e-21
 2.6811546e-21
-6.9435093e-22
-6.7361326e-34
 1.0269659e-22
-5.1579748e-23
 1.3357844e-23
 1.2961509e-35
-1.9756653e-24
 9.9228534e-25
-2.5697669e-25
-2.4946811e-37
 3.8007625e-26
-1.9089473e-26
 4.9436885e-27
 4.8007189e-39
-7.3118638e-28
 3.6724111e-28
-9.5106118e-29
-9.2349775e-41
 1.4066480e-29
-7.0649427e-30
 1.8296407e-30
 1.7793127e-42
-2.7060935e-31
 1.3591457e-31
-3.5198420e-32
-3.4151325e-44
 5.2059520e-33
-2.6147090e-33
 6.7714321e-34
 6.5692872e-46
-1.0015151e-34
 5.0301475e-35
-1.3026804e-35
-1.2664235e-47
 1.9267035e-36
-9.6769406e-37
 2.5060818e-37
 2.4358508e-49
-3.7065702e-38
 1.8616389e-38
-4.8211717e-39
-4.6826838e-51
 7.1306578e-40
-3.5813997e-40
 9.2749154e-41
 8.9938532e-53
-1.3717878e-41
 6.8898561e-42
-1.7842977e-42
-1.7310328e-54
 2.6390299e-43
-1.3254627e-43
 3.4326116e-44
 3.3376932e-56
-5.0769357e-45
 2.5499101e-45
-6.6036193e-46
-6.4131508e-58
 9.7669513e-47
-4.9054882e-47
 1.2703970e-47
 1.2330531e-59
-1.8789721e-48
 9.4377841e-49
-2.4452928e-49
-2.3796810e-61
 3.7038151e-50
-2.1595630e-50
 1.1552017e-50
 4.9535202e-62
-4.7011733e-50
 1.7919437e-49
-3.5617560e-49
-2.3381113e-60
 2.4075720e-48
-9.2965116e-48
 1.8509579e-47
 1.2151309e-58
-1.2514673e-46
 4.8323941e-46
-9.6214194e-46
-6.3168006e-57
 6.5052225e-45
-2.5119153e-44
 5.0012871e-44
 3.2835332e-55
-3.3814642e-43
 1.3057127e-42
-2.5997072e-42
-1.7067064e-53
 1.7577109e-41
-6.7871942e-41
 1.3513476e-40
 8.8709061e-52
-9.1367151e-40
 3.5280353e-39
-7.0244078e-39
-4.6108399e-50
 4.7493341e-38
-1.8338996e-37
 3.6513407e-37
 2.3973972e-48
-2.4687401e-36
 9.5327500e-36
-1.8979947e-35
-1.2461047e-46
 1.2832699e-34
-4.9551961e-34
 9.8659213e-34
 6.4751199e-45
-6.6705348e-33
 2.5757487e-32
-5.1283811e-32
-3.3667036e-43
 3.4673948e-31
-1.3388938e-30
 2.6657716e-30
 1.7501550e-41
-1.8023782e-29
 6.9596720e-29
-1.3856884e-28
-9.0961222e-40
 9.3688995e-28
-3.6176905e-27
 7.2029138e-27
 4.7292489e-38
-4.8700254e-26
 1.8805031e-25
-3.7441295e-25
-2.4581186e-36
 2.5314763e-24
-9.7749985e-24
 1.9462270e-23
 1.2777582e-34
-1.3158807e-22
 5.0811187e-22
-1.0116636e-21
-6.6418390e-33
 6.8400480e-21
-2.6412042e-20
 5.2587047e-20
 3.4524498e-31
-3.5555091e-19
 1.3729181e-18
-2.7335148e-18
-1.7948163e-29
 1.8481807e-17
-7.1365329e-17
 1.4209018e-16
 9.3275923e-28
-9.6069842e-16
 3.7096242e-15
-7.3859560e-15
-4.8477954e-26
 4.9937836e-14
-1.9282909e-13
 3.8392762e-13
 2.5204193e-24
-2.5958068e-12
 1.0023403e-11
-1.9956850e-11
-1.3098306e-22
 1.3493201e-10
-5.2102413e-10
 1.0373723e-09
 6.8108225e-21
-7.0138690e-09
 2.7083232e-08
-5.3923402e-08
-3.5397033e-19
 3.6458625e-07
-1.4078070e-06
 2.8029795e-06
 1.8404722e-17
-5.2701471e-05
-1.1432112e-04
 2.0367399e-04
 1.3000000e-03
 3.2188619e-03
 5.8061060e-03
 8.6386497e-03
 1.1460000e-02
 1.4438756e-02
 1.7524311e-02
 2.0681543e-02
 2.3940000e-02
 2.7337055e-02
 3.0869697e-02
 3.4538626e-02
 3.8340000e-02
 4.2252497e-02
 4.6268923e-02
 5.0380551e-02
 5.4600000e-02
 5.8960587e-02
 6.3428799e-02
 6.7992741e-02
 7.2660000e-02
 7.7420107e-02
 8.2236046e-02
 8.7159416e-02
 9.2220000e-02
 9.7340125e-02
 1.0252433e-01
 1.0777857e-01
 1.1308000e-01
 1.1840716e-01
 1.2382383e-01
 1.2931267e-01
 1.3482000e-01
 1.4033902e-01
 1.4586420e-01
 1.5141528e-01
 1.5700000e-01
 1.6258372e-01
 1.6814027e-01
 1.7365067e-01
 1.7910000e-01
 1.8448872e-01
 1.8985909e-01
 1.9514364e-01
 2.0028000e-01
 2.0532047e-01
 2.1026458e-01
 2.1509766e-01
 2.1978000e-01
 2.2425258e-01
 2.2853769e-01
 2.3265293e-01
 2.3660000e-01
 2.4037928e-01
 2.4398056e-01
 2.4739884e-01
 2.5060000e-01
 2.5352239e-01
 2.5620090e-01
 2.5864996e-01
 2.6086000e-01
 2.6284144e-01
 2.6463759e-01
 2.6617461e-01
 2.6738000e-01
 2.6831437e-01
 2.6905698e-01
 2.6963086e-01
 2.6992000e-01
 2.6974028e-01
 2.6924431e-01
 2.6854688e-01
 2.6764000e-01
 2.6646020e-01
 2.6498617e-01
 2.6334654e-01
 2.6150000e-01
 2.5915206e-01
 2.5655975e-01
 2.5378601e-01
 2.5074000e-01
 2.4744442e-01
 2.4394946e-01
 2.4023241e-01
 2.3630000e-01
 2.3224549e-01
 2.2802320e-01
 2.2360762e-01
 2.1904000e-01
 2.1438021e-01
 2.0958896e-01
 2.0466807e-01
 1.9966000e-01
 1.9459736e-01
 1.8949104e-01
 1.8433468e-01
 1.7910000e-01
 1.7376560e-01
 1.6841717e-01
 1.6308076e-01
 1.5774000e-01
 1.5239967e-01
 1.4706090e-01
 1.4171830e-01
 1.3638000e-01
 1.3107673e-01
 1.2582593e-01
 1.2063805e-01
 1.1550000e-01
 1.1038805e-01
 1.0536058e-01
 1.0042002e-01
 9.5540000e-02
 9.0727613e-02
 8.5991331e-02
 8.1339391e-02
 7.6800000e-02
 7.2404830e-02
 6.8085184e-02
 6.3832881e-02
 5.9680000e-02
 5.5646529e-02
 5.1791605e-02
 4.8064548e-02
 4.4420000e-02
 4.0918782e-02
 3.7536374e-02
 3.4260626e-02
 3.1100000e-02
 2.8070253e-02
 2.5226938e-02
 2.2531948e-02
 1.9920000e-02
 1.7387413e-02
 1.4932844e-02
 1.2599938e-02
 1.0400000e-02
 8.2792574e-03
 6.2951772e-03
 4.4228439e-03
 2.6400000e-03
 1.0977669e-03
 1.4794149e-04
-1.2407271e-04
-2.0000000e-05
 5.9286675e-06
-3.1346499e-06
 8.1179469e-07
 7.8825835e-19
-1.2006687e-07
 6.0304038e-08
-1.5617214e-08
-1.5178830e-20
 2.3098329e-09
-1.1601222e-09
 3.0044219e-10
 2.9171815e-22
-4.4436302e-11
 2.2318300e-11
-5.7798727e-12
-5.6115933e-24
 8.5486054e-13
-4.2935692e-13
 1.1119254e-13
 1.0794707e-25
-1.6445710e-14
 8.2599197e-15
-2.1391094e-15
-2.0782913e-27
 3.1638070e-16
-1.5890340e-16
 4.1151943e-17
 4.0026171e-29
-6.0864960e-18
 3.0569655e-18
-7.9167641e-19
-7.6866607e-31
 1.1709132e-19
-5.8809556e-20
 1.5230181e-20
 1.4810863e-32
-2.2525895e-21
 1.1313716e-21
-2.9299649e-22
-2.8411319e-34
 4.3335061e-23
-2.1765198e-23
 5.6366332e-24
 5.4696410e-36
-8.3367499e-25
 4.1871640e-25
-1.0843691e-25
-1.0517383e-37
 1.6038145e-26
-8.0552186e-27
 2.0860970e-27
 2.0242013e-39
-3.0854035e-28
 1.5496672e-28
-4.0134762e-29
-3.9048453e-41
 5.9536804e-30
-3.0507991e-30
 9.1061766e-31
 1.6599266e-42
-1.0510261e-30
 3.6748366e-30
-7.2173563e-30
-4.7290689e-41
 4.8699676e-29
-1.8804070e-28
 3.7439191e-28
 2.4582526e-39
-2.5313321e-27
 9.7744418e-27
-1.9461162e-26
-2.5550545e-37
 1.3158057e-25
-5.0808293e-25
 1.0116060e-24
 6.6408472e-36
-6.8396584e-24
 2.6410538e-23
-5.2584052e-23
-3.4520368e-34
 3.5553066e-22
-1.3728399e-21
 2.7333591e-21
 1.7942888e-32
-1.8480754e-20
 7.1361264e-20
-1.4208209e-19
-9.3274913e-31
 9.6064370e-19
-3.7094129e-18
 7.3855353e-18
 9.6980666e-29
-4.9934992e-17
 1.9281811e-16
-3.8390575e-16
-2.5208006e-27
 2.5956589e-15
-1.0022832e-14
 1.9955714e-14
 1.3101507e-25
-1.3492433e-13
 5.2099446e-13
-1.0373132e-12
-6.8100125e-24
 7.0134695e-12
-2.7081689e-11
 5.3920331e-11
 3.5399624e-22
-3.6456549e-10
 1.4077268e-09
-2.8028199e-09
-1.8400266e-20
 1.8950392e-08
-7.3174714e-08
 1.4569271e-07
 9.5643979e-19
-9.8505581e-07
 3.8036774e-06
-7.5732183e-06
-4.9721338e-17
 7.6516452e-05
-1.1771805e-04
-7.6883834e-04
-1.8600000e-03
-3.2447454e-03
-4.5274651e-03
-5.6887705e-03
-6.8400000e-03
-7.8800659e-03
-8.8090954e-03
-9.6969696e-03
-1.0600000e-02
-1.1505579e-02
-1.2372076e-02
-1.3229750e-02
-1.4140000e-02
-1.5113241e-02
-1.6092964e-02
-1.7193528e-02
-1.8480000e-02
-1.9812761e-02
-2.1276308e-02
-2.2935859e-02
-2.4820000e-02
-2.6951000e-02
-2.9244038e-02
-3.1789289e-02
-3.4700000e-02
-3.7940844e-02
-4.1551206e-02
-4.5606442e-02
-5.0200000e-02
-5.5393870e-02
-6.1078238e-02
-6.7221344e-02
-7.3840000e-02
-8.0898835e-02
-8.8342911e-02
-9.6133677e-02
-1.0422000e-01
-1.1250921e-01
-1.2090037e-01
-1.2929057e-01
-1.3762000e-01
-1.4583512e-01
-1.5365764e-01
-1.6095174e-01
-1.6764000e-01
-1.7353012e-01
-1.7843215e-01
-1.8237317e-01
-1.8500000e-01
-1.8545387e-01
-1.8399796e-01
-1.8070136e-01
-1.7534000e-01
-1.6778891e-01
-1.5806918e-01
-1.4534511e-01
-1.2920000e-01
-1.1048794e-01
-8.9027000e-02
-6.4570378e-02
-3.7220000e-02
-7.0225090e-03
 2.7258164e-02
 6.5318515e-02
 1.0634000e-01
 1.5051809e-01
 1.9778498e-01
 2.4786945e-01
 3.0080000e-01
 3.5678936e-01
 4.1458030e-01
 4.7350246e-01
 5.3334000e-01
 5.9364621e-01
 6.5410172e-01
 7.1409773e-01
 7.7292000e-01
 8.3002171e-01
 8.8485272e-01
 9.3675249e-01
 9.8542000e-01
 1.0305371e+00
 1.0693519e+00
 1.1014708e+00
 1.1275600e+00
 1.1469923e+00
 1.1594520e+00
 1.1654463e+00
 1.1642000e+00
 1.1535152e+00
 1.1359721e+00
 1.1125914e+00
 1.0830000e+00
 1.0475902e+00
 1.0069851e+00
 9.6043057e-01
 9.0798000e-01
 8.5188746e-01
 7.9262397e-01
 7.3064518e-01
 6.6656000e-01
 6.0087112e-01
 5.3465360e-01
 4.6890766e-01
 4.0420000e-01
 3.4070903e-01
 2.7880391e-01
 2.1868842e-01
 1.6100000e-01
 1.0683576e-01
 5.5658043e-02
 7.3767669e-03
-3.7640000e-02
-7.9295466e-02
-1.1777216e-01
-1.5206280e-01
-1.8168000e-01
-2.0787373e-01
-2.3065577e-01
-2.4995236e-01
-2.6602000e-01
-2.7902570e-01
-2.8799287e-01
-2.9348941e-01
-2.9652000e-01
-2.9698886e-01
-2.9507260e-01
-2.9115904e-01
-2.8530000e-01
-2.7721975e-01
-2.6778946e-01
-2.5736522e-01
-2.4592000e-01
-2.3363835e-01
-2.2064800e-01
-2.0717209e-01
-1.9346000e-01
-1.7968152e-01
-1.6598710e-01
-1.5252938e-01
-1.3938000e-01
-1.2659627e-01
-1.1465279e-01
-1.0363746e-01
-9.3380000e-02
-8.3817616e-02
-7.4922977e-02
-6.6647562e-02
-5.9100000e-02
-5.2505222e-02
-4.6512430e-02
-4.1006812e-02
-3.6060000e-02
-3.1624926e-02
-2.7600679e-02
-2.4111983e-02
-2.1200000e-02
-1.8602355e-02
-1.6297263e-02
-1.4273804e-02
-1.2480000e-02
-1.0881063e-02
-9.5216600e-03
-8.3342642e-03
-7.2200000e-03
-6.1629810e-03
-5.1439168e-03
-4.1525813e-03
-3.2000000e-03
-2.2989247e-03
-1.4021678e-03
-6.3119773e-04
-1.4000000e-04
 6.6128373e-05
 4.9142708e-05
-1.0136967e-05
-9.8476782e-18
 1.4992879e-06
-7.5302298e-07
 1.9501382e-07
 1.8925833e-19
-2.8843130e-08
 1.4486571e-08
-3.7516538e-09
-3.6429193e-21
 5.5488086e-10
-2.7869100e-10
 7.2173889e-11
 7.0134328e-23
-1.0674735e-11
 5.3614258e-12
-1.3884731e-12
-1.3486353e-24
 2.0535934e-13
-1.0314250e-13
 2.6711288e-14
 2.5994151e-26
-3.9506797e-15
 1.9842437e-15
-5.1386872e-16
-4.9889331e-28
 7.6002727e-17
-3.8172655e-17
 9.8857480e-18
 9.5925486e-30
-1.4621318e-18
 7.3436121e-19
-1.9018090e-19
-1.8459345e-31
 2.8128326e-20
-1.4127558e-20
 3.6586785e-21
 3.5548045e-33
-5.4112954e-22
 2.7178435e-22
-7.0385242e-23
-6.8331994e-35
 1.0410189e-23
-5.2285565e-24
 1.3540633e-24
 1.3144472e-36
-2.0027003e-25
 1.0058638e-25
-2.6049316e-26
-2.5315446e-38
 3.8527721e-27
-1.9350693e-27
 5.0113378e-28
 4.8665466e-40
-7.4119192e-29
 3.7226643e-29
-9.6407548e-30
-9.3488535e-42
 1.4258966e-30
-7.1616193e-31
 1.8546775e-31
 1.8008367e-43
-2.7431237e-32
 1.3777442e-32
-3.5680075e-33
-3.4662519e-45
 5.2771902e-34
-2.6504886e-34
 6.8640922e-35
 6.6631742e-47
-1.0152199e-35
 5.0989799e-36
-1.3205063e-36
-1.2819691e-48
 1.9530684e-37
-9.8093597e-38
 2.5403750e-38
 4.9332822e-50
-3.7572909e-39
 1.8871135e-39
-4.8871445e-40
 0.0000000e+00
 7.2282336e-41
-3.6304075e-41
 9.4018332e-42
 9.1208096e-54
-1.3905594e-42
 6.9841367e-43
-1.8087140e-43
-3.5132239e-55
 2.6751423e-44
-1.3436003e-44
 3.4795835e-45
 3.3727667e-57
-5.1464091e-46
 2.5848055e-46
-6.6940332e-47
-6.4934426e-59
 9.9039869e-48
-4.9856847e-48
 1.3138036e-48
 1.4208388e-60
-3.6641110e-49
 7.7505139e-49
-1.3774545e-48
-8.9053838e-60
 9.1493902e-48
-3.5316988e-47
 7.0313832e-47
 4.6167804e-58
-4.7540188e-46
 1.8357083e-45
-3.6549418e-45
-2.3996807e-56
 2.4711748e-44
-9.5421515e-44
 1.8998666e-43
 2.4946239e-54
-1.2845355e-42
 4.9600831e-42
-9.8756514e-42
-6.4822897e-53
 6.6771135e-41
-2.5782890e-40
 5.1334389e-40
 3.3698217e-51
-3.4708145e-39
 1.3402143e-38
-2.6684007e-38
-3.5035883e-49
 1.8041558e-37
-6.9665359e-37
 1.3870550e-36
 9.1062505e-48
-9.3781395e-36
 3.6212585e-35
-7.2100176e-35
-4.7328856e-46
 4.8748284e-34
-1.8823577e-33
 3.7478221e-33
 2.4602317e-44
-2.5339729e-32
 9.7846390e-32
-1.9481465e-31
-1.2790963e-42
 1.3171784e-30
-5.0861299e-30
 1.0126614e-29
 6.6470532e-41
-6.8467939e-29
 2.6438091e-28
-5.2638911e-28
-3.4556595e-39
 3.5590157e-27
-1.3742721e-26
 2.7362107e-26
 3.5930631e-37
-1.8500035e-25
 7.1435712e-25
-1.4223032e-24
-9.3383528e-36
 9.6164590e-24
-3.7132828e-23
 7.3932403e-23
 4.8529583e-34
-4.9987087e-22
 1.9301927e-21
-3.8430626e-21
-2.5228758e-32
 2.5983669e-20
-1.0033289e-19
 1.9976533e-19
 1.3115601e-30
-1.3506509e-18
 5.2153799e-18
-1.0383954e-17
-6.8172728e-29
 7.0207863e-17
-2.7109942e-16
 5.3976584e-16
 3.5439519e-27
-3.6494582e-15
 1.4091955e-14
-2.8057439e-14
-3.6841591e-25
 1.8970162e-13
-7.3251054e-13
 1.4584471e-12
 0.0000000e+00
-9.8608348e-12
 3.8076456e-11
-7.5811191e-11
-4.9767421e-22
 5.1257371e-10
-1.9792432e-09
 3.9407235e-09
 5.1748970e-20
-2.6643972e-08
 1.0288257e-07
-2.0484181e-07
-1.3450178e-18
 1.3849740e-06
-5.3479144e-06
 1.4085333e-05
 2.2000000e-04
 8.2863300e-04
 1.6929887e-03
 2.5912050e-03
 3.4400000e-03
 4.3303242e-03
 5.2749373e-03
 6.2423169e-03
 7.2000000e-03
 8.1520110e-03
 9.1652719e-03
 1.0244252e-02
 1.1360000e-02
 1.2509792e-02
 1.3690921e-02
 1.4912823e-02
 1.6180000e-02
 1.7479749e-02
 1.8811818e-02
 2.0180536e-02
 2.1580000e-02
 2.3006720e-02
 2.4524546e-02
 2.6111489e-02
 2.7720000e-02
 2.9363650e-02
 3.1046781e-02
 3.2789218e-02
 3.4600000e-02
 3.6454740e-02
 3.8340349e-02
 4.0269474e-02
 4.2260000e-02
 4.4325810e-02
 4.6510055e-02
 4.8739378e-02
 5.0960000e-02
 5.3255021e-02
 5.5639281e-02
 5.8115971e-02
 6.0640000e-02
 6.3143418e-02
 6.5777320e-02
 6.8512300e-02
 7.1260000e-02
 7.4068468e-02
 7.6947599e-02
 7.9926934e-02
 8.3000000e-02
 8.6106226e-02
 8.9310026e-02
 9.2603090e-02
 9.5940000e-02
 9.9322795e-02
 1.0275354e-01
 1.0630237e-01
 1.0998000e-01
 1.1367689e-01
 1.1743840e-01
 1.2129610e-01
 1.2522000e-01
 1.2916849e-01
 1.3319985e-01
 1.3732123e-01
 1.4150000e-01
 1.4572282e-01
 1.4999187e-01
 1.5434234e-01
 1.5880000e-01
 1.6334717e-01
 1.6796783e-01
 1.7264335e-01
 1.7736000e-01
 1.8210331e-01
 1.8682367e-01
 1.9161718e-01
 1.9656000e-01
 2.0156244e-01
 2.0661136e-01
 2.1169887e-01
 2.1680000e-01
 2.2189622e-01
 2.2702544e-01
 2.3221965e-01
 2.3748000e-01
 2.4278399e-01
 2.4811806e-01
 2.5341724e-01
 2.5870000e-01
 2.6409732e-01
 2.6947779e-01
 2.7482454e-01
 2.8020000e-01
 2.8559912e-01
 2.9099957e-01
 2.9640185e-01
 3.0180000e-01
 3.0716123e-01
 3.1248703e-01
 3.1778138e-01
 3.2306000e-01
 3.2834499e-01
 3.3358966e-01
 3.3879108e-01
 3.4396000e-01
 3.4907096e-01
 3.5411792e-01
 3.5912872e-01
 3.6410000e-01
 3.6897364e-01
 3.7377354e-01
 3.7851214e-01
 3.8318000e-01
 3.8776876e-01
 3.9227051e-01
 3.9663604e-01
 4.0088000e-01
 4.0510750e-01
 4.0923514e-01
 4.1320592e-01
 4.1704000e-01
 4.2077966e-01
 4.2439199e-01
 4.2786087e-01
 4.3120000e-01
 4.3442811e-01
 4.3754395e-01
 4.4050738e-01
 4.4330000e-01
 4.4596122e-01
 4.4849258e-01
 4.5087736e-01
 4.5310000e-01
 4.5516241e-01
 4.5709456e-01
 4.5887109e-01
 4.6046000e-01
 4.6188070e-01
 4.6315056e-01
 4.6428243e-01
 4.6526000e-01
 4.6605767e-01
 4.6675651e-01
 4.6720486e-01
 4.6748000e-01
 4.6816582e-01
 4.6943072e-01
 4.7136005e-01
 4.7360000e-01
 4.7537832e-01
 4.7703095e-01
 4.7863017e-01
 4.8000000e-01
 4.8117840e-01
 4.8232487e-01
 4.8327001e-01
 4.8388000e-01
 4.8437627e-01
 4.8476556e-01
 4.8503748e-01
 4.8504000e-01
 4.8456625e-01
 4.8416621e-01
 4.8373479e-01
 4.8296000e-01
 4.8202257e-01
 4.8094666e-01
 4.7974994e-01
 4.7840000e-01
 4.7680390e-01
 4.7509489e-01
 4.7327261e-01
 4.7126000e-01
 4.6907319e-01
 4.6678931e-01
 4.6437304e-01
 4.6176000e-01
 4.5897591e-01
 4.5607842e-01
 4.5309765e-01
 4.5004000e-01
 4.4688815e-01
 4.4355278e-01
 4.4007029e-01
 4.3650000e-01
 4.3280207e-01
 4.2897704e-01
 4.2507459e-01
 4.2110000e-01
 4.1698071e-01
 4.1274857e-01
 4.0843251e-01
 4.0404000e-01
 3.9957077e-01
 3.9500239e-01
 3.9033353e-01
 3.8558000e-01
 3.8075853e-01
 3.7588956e-01
 3.7097747e-01
 3.6602000e-01
 3.6100175e-01
 3.5584059e-01
 3.5058723e-01
 3.4532000e-01
 3.4001614e-01
 3.3467718e-01
 3.2930583e-01
 3.2390000e-01
 3.1845122e-01
 3.1293120e-01
 3.0736109e-01
 3.0178000e-01
 2.9619064e-01
 2.9056308e-01
 2.8492150e-01
 2.7928000e-01
 2.7359703e-01
 2.6791374e-01
 2.6225767e-01
 2.5660000e-01
 2.5089654e-01
 2.4523228e-01
 2.3960209e-01
 2.3396000e-01
 2.2831902e-01
 2.2268528e-01
 2.1707285e-01
 2.1150000e-01
 2.0597417e-01
 2.0048075e-01
 1.9502914e-01
 1.8964000e-01
 1.8430233e-01
 1.7894303e-01
 1.7365960e-01
 1.6852000e-01
 1.6339960e-01
 1.5832411e-01
 1.5331927e-01
 1.4836000e-01
 1.4342218e-01
 1.3861306e-01
 1.3392406e-01
 1.2928000e-01
 1.2465738e-01
 1.2005667e-01
 1.1556011e-01
 1.1120000e-01
 1.0687661e-01
 1.0257762e-01
 9.8334381e-02
 9.4180000e-02
 9.0102696e-02
 8.5997320e-02
 8.1993333e-02
 7.8180000e-02
 7.4380379e-02
 7.0624234e-02
 6.6938532e-02
 6.3320000e-02
 5.9771947e-02
 5.6267525e-02
 5.2819248e-02
 4.9440000e-02
 4.6103049e-02
 4.2811991e-02
 3.9601846e-02
 3.6500000e-02
 3.3490760e-02
 3.0526426e-02
 2.7578531e-02
 2.4640000e-02
 2.1737405e-02
 1.8986357e-02
 1.6297042e-02
 1.3600000e-02
 1.1025724e-02
 8.4855166e-03
 6.0093634e-03
 3.5600000e-03
 1.1624320e-03
 5.6781577e-05
-5.4565526e-05
-8.0000000e-05
-4.4374652e-05
-6.3158562e-05
-6.7893583e-05
-6.6312515e-17
 5.0499385e-06
-2.5363506e-06
 6.5685038e-07
 6.3768435e-19
-9.7150144e-08
 4.8794025e-08
-1.2636413e-08
-1.2294853e-20
 1.8689634e-09
-9.3869392e-10
 2.4309788e-10
 2.3581397e-22
-3.5954906e-11
 1.8058487e-11
-4.6766894e-12
-4.5422142e-24
 6.9169641e-13
-3.4740712e-13
 8.9969619e-14
 8.7350273e-26
-1.3306777e-14
 6.6833788e-15
-1.7308253e-15
-1.6802106e-27
 2.5599426e-16
-1.2857408e-16
 3.3297421e-17
 6.4623485e-29
-4.9247886e-18
 2.4734936e-18
-6.4057201e-19
 0.0000000e+00
 9.4742524e-20
-4.7584789e-20
 1.2323252e-20
 1.1980825e-32
-1.8226459e-21
 9.1543077e-22
-2.3707331e-22
-4.6068244e-34
 3.5063855e-23
-1.7610953e-23
 4.5607895e-24
 4.4296389e-36
-6.7455446e-25
 3.3879752e-25
-8.7739950e-26
-8.5162215e-38
 1.2977002e-26
-6.5177482e-27
 1.6879312e-27
 1.6386391e-39
-2.4965010e-28
 1.2538770e-28
-3.2472229e-29
-3.1554676e-41
 4.8027402e-30
-2.4121943e-30
 6.2469705e-31
 6.0668825e-43
-9.2394570e-32
 4.6405521e-32
-1.2017851e-32
-1.1685708e-44
 1.7774763e-33
-8.9274414e-34
 2.3119805e-34
 4.4869577e-46
-3.4194886e-35
 1.7174510e-35
-4.4477619e-36
-4.3221300e-48
 6.5783734e-37
-3.3040128e-37
 8.5565538e-38
 8.3065251e-50
-1.2655400e-38
 6.3562223e-39
-1.6461001e-39
-3.1966266e-51
 2.4346315e-40
-1.2228028e-40
 3.1667487e-41
 3.0736794e-53
-4.6837164e-42
 2.3524142e-42
-6.0921552e-43
-5.9197562e-55
 9.0104805e-44
-4.5255477e-44
 1.1720019e-44
 1.1386656e-56
-1.7334260e-45
 8.7061974e-46
-2.2546839e-46
-2.1920945e-58
 3.3347453e-47
-1.6748884e-47
 4.3375354e-48
 4.2097454e-60
-6.4153451e-49
 3.2221312e-49
-8.3445013e-50
-8.1023659e-62
 1.2341768e-50
-6.1986995e-51
 1.6053057e-51
 3.1153970e-63
-2.3742953e-52
 1.1924988e-52
-3.0882689e-53
-3.0021187e-65
 4.5676424e-54
-2.2941156e-54
 5.9411766e-55
 5.7685574e-67
-8.7871786e-56
 4.4133935e-56
-1.1429568e-56
-2.2181053e-68
 1.6904674e-57
-8.4904363e-58
 2.1988073e-58
 2.1374300e-70
-3.2521021e-59
 1.6333805e-59
-4.2300406e-60
-4.1040338e-72
 6.2563571e-61
-3.1422789e-61
 8.1377040e-62
 7.9010800e-74
-1.2035909e-62
 6.0450804e-63
-1.5655223e-63
-3.0421422e-75
 2.3154544e-64
-1.1629457e-64
 3.0117340e-65
 2.9266248e-77
-4.4544450e-66
 2.2372617e-66
-5.7939396e-67
-5.6264638e-79
 8.5694107e-68
-4.3040188e-68
 1.1146315e-68
 2.1644397e-80
-1.6485735e-69
 8.2800224e-70
-2.1443155e-70
-2.0789214e-82
 3.1715070e-71
-1.5929013e-71
 4.1252097e-72
 4.0060352e-84
-6.1013091e-73
 3.0644055e-73
-7.9360317e-74
-1.5422083e-85
 1.1737629e-74
-5.8952684e-75
 1.5267248e-75
 1.4847486e-87
-2.2580718e-76
 1.1341250e-76
-2.9370958e-77
-2.8552859e-89
 4.3440529e-78
-2.1818169e-78
 5.6503515e-79
 5.4903301e-91
-8.3570396e-80
 4.1973546e-80
-1.0870082e-80
-2.1121375e-92
 1.6077178e-81
-8.0748230e-82
 2.0911740e-82
 2.0288363e-94
-3.0929075e-83
 1.5534187e-83
-4.0228459e-84
-3.9071398e-96
 5.9412469e-85
-2.9542627e-85
 7.0584418e-86
 6.0861793e-98
 3.4591228e-86
-1.7202105e-85
 3.5245613e-85
 2.3217369e-96
-2.3928686e-84
 9.2405208e-84
-1.8398303e-83
-1.2078575e-94
 1.2439457e-82
-4.8033506e-82
 9.5635931e-82
 6.2786538e-93
-6.4661250e-81
 2.4968183e-80
-4.9712286e-80
-3.2633199e-91
 3.3611411e-79
-1.2978652e-78
 2.5840825e-78
 1.6965827e-89
-1.7471467e-77
 6.7464020e-77
-1.3432258e-76
-8.8182085e-88
 9.0818019e-76
-3.5068312e-75
 6.9821900e-75
 9.1684435e-86
-4.7207898e-74
 1.8228776e-73
-3.6293956e-73
-2.3829074e-84
 2.4539025e-72
-9.4754566e-72
 1.8865875e-71
 1.2385765e-82
-1.2755572e-70
 4.9254145e-70
-9.8066255e-70
-1.2876241e-80
 6.6304437e-69
-2.5602680e-68
 5.0975586e-68
 3.3473250e-79
-3.4465552e-67
 1.3308468e-66
-2.6497498e-66
-1.7396698e-77
 1.7915457e-65
-6.9178432e-65
 1.3773602e-64
 9.0435194e-76
-9.3125908e-64
 3.5959476e-63
-7.1596231e-63
-4.7004634e-74
 4.8407557e-62
-1.8692010e-61
 3.7216266e-61
 0.0000000e+00
-2.5162617e-60
 9.7162492e-60
-1.9345299e-59
-2.5400093e-70
 1.3079720e-58
-5.0505804e-58
 1.0055834e-57
 1.3203383e-68
-6.7989382e-57
 2.6253302e-56
-5.2270990e-56
-6.8629216e-67
 3.5341399e-55
-1.3646666e-54
 2.7170859e-54
 3.5674848e-65
-1.8370728e-53
 7.0936411e-53
-1.4123620e-52
-1.8543856e-63
 9.5492447e-52
-3.6873287e-51
 7.3415652e-51
 0.0000000e+00
-4.9637702e-50
 1.9167016e-49
-3.8162015e-49
 0.0000000e+00
 2.5802056e-48
-9.9631608e-48
 1.9836906e-47
 2.6044663e-58
-1.3412105e-46
 5.1789269e-46
-1.0311375e-45
-1.3538477e-56
 6.9717145e-45
-2.6920457e-44
 5.3599314e-44
 0.0000000e+00
-3.6239503e-43
 1.3993459e-42
-2.7861332e-42
-3.6582423e-53
 1.8837570e-41
-7.2739065e-41
 1.4482533e-40
 1.9016721e-51
-9.7919124e-40
 3.7810320e-39
-7.5281308e-39
 0.0000000e+00
 5.0899107e-38
-1.9654093e-37
 3.9131798e-37
 0.0000000e+00
-2.6457744e-36
 1.0216347e-35
-2.0341007e-35
-2.6707873e-46
 1.3752937e-34
-5.3105351e-34
 1.0573410e-33
 1.3881263e-44
-7.1488813e-33
 2.7604566e-32
-5.4961392e-32
 0.0000000e+00
 3.7160430e-31
-1.4349064e-30
 2.8569351e-30
 3.7512504e-41
-1.9316275e-29
 7.4587527e-29
-1.4850566e-28
-1.9498513e-39
 1.0040747e-27
-3.8771165e-27
 7.7194375e-27
 0.0000000e+00
-5.2192567e-26
 2.0153547e-25
-4.0126224e-25
-5.2687726e-36
 2.7130094e-24
-1.0475967e-23
 2.0857917e-23
 2.7385761e-34
-1.4102430e-22
 5.4454877e-22
-1.0842104e-21
-1.4235242e-32
 7.3305505e-21
-2.8306060e-20
 5.6358085e-20
 0.0000000e+00
-3.8104760e-19
 1.4713706e-18
-2.9295362e-18
-3.8464858e-29
 1.9807145e-17
-7.6482964e-17
 1.5227952e-16
 0.0000000e+00
-1.0295905e-15
 3.9756427e-15
-7.9156057e-15
 0.0000000e+00
 5.3518897e-14
-2.0665694e-13
 4.1145922e-13
 5.4023166e-24
-2.7819531e-12
 1.0742185e-11
-2.1387964e-11
-2.8083377e-22
 1.4460804e-10
-5.5838697e-10
 1.1117626e-09
 1.4597427e-20
-7.5168362e-09
 2.9025380e-08
-5.7790270e-08
-7.5883310e-19
 3.9073087e-07
-1.5087614e-06
 3.0039823e-06
 3.9437897e-17
-3.7185489e-05
-2.4073433e-05
-1.1802429e-04
 1.0000000e-04
 1.7407547e-03
 4.1233273e-03
 6.7673840e-03
 9.5800000e-03
 1.2441692e-02
 1.5433556e-02
 1.8544057e-02
 2.1740000e-02
 2.5078742e-02
 2.8536780e-02
 3.2099753e-02
 3.5780000e-02
 3.9596225e-02
 4.3553876e-02
 4.7629116e-02
 5.1800000e-02
 5.6072577e-02
 6.0449155e-02
 6.4919949e-02
 6.9500000e-02
 7.4224795e-02
 7.9025041e-02
 8.3893239e-02
 8.8860000e-02
 9.3918725e-02
 9.9041230e-02
 1.0424788e-01
 1.0954000e-01
 1.1485805e-01
 1.2022600e-01
 1.2565657e-01
 1.3114000e-01
 1.3665941e-01
 1.4217660e-01
 1.4770917e-01
 1.5328000e-01
 1.5886100e-01
 1.6443320e-01
 1.6999056e-01
 1.7550000e-01
 1.8090866e-01
 1.8627972e-01
 1.9160635e-01
 1.9684000e-01
 2.0197160e-01
 2.0700387e-01
 2.1192814e-01
 2.1670000e-01
 2.2126021e-01
 2.2565177e-01
 2.2989987e-01
 2.3400000e-01
 2.3793512e-01
 2.4164911e-01
 2.4514250e-01
 2.4844000e-01
 2.5153532e-01
 2.5441697e-01
 2.5708650e-01
 2.5950000e-01
 2.6158097e-01
 2.6344344e-01
 2.6510942e-01
 2.6654000e-01
 2.6772865e-01
 2.6862178e-01
 2.6932484e-01
 2.6982000e-01
 2.6983743e-01
 2.6952897e-01
 2.6899895e-01
 2.6828000e-01
 2.6738313e-01
 2.6606679e-01
 2.6445066e-01
 2.6270000e-01
 2.6065522e-01
 2.5828792e-01
 2.5570321e-01
 2.5290000e-01
 2.4970655e-01
 2.4627649e-01
 2.4268073e-01
 2.3890000e-01
 2.3495815e-01
 2.3090961e-01
 2.2663897e-01
 2.2210000e-01
 2.1747873e-01
 2.1276365e-01
 2.0794244e-01
 2.0302000e-01
 1.9799027e-01
 1.9291071e-01
 1.8778250e-01
 1.8258000e-01
 1.7730997e-01
 1.7198441e-01
 1.6663887e-01
 1.6130000e-01
 1.5596009e-01
 1.5062023e-01
 1.4527940e-01
 1.3994000e-01
 1.3461262e-01
 1.2930384e-01
 1.2406717e-01
 1.1892000e-01
 1.1379843e-01
 1.0872487e-01
 1.0371905e-01
 9.8780000e-02
 9.3906656e-02
 8.9118090e-02
 8.4427954e-02
 7.9840000e-02
 7.5353291e-02
 7.0964433e-02
 6.6646109e-02
 6.2400000e-02
 5.8290957e-02
 5.4358882e-02
 5.0566558e-02
 4.6860000e-02
 4.3240047e-02
 3.9748708e-02
 3.6397861e-02
 3.3180000e-02
 3.0097247e-02
 2.7150812e-02
 2.4335613e-02
 2.1640000e-02
 1.9046230e-02
 1.6534052e-02
 1.4138404e-02
 1.1880000e-02
 9.7087712e-03
 7.6085054e-03
 5.6483417e-03
 3.8000000e-03
 1.9826690e-03
 7.4616908e-04
 1.5157558e-04
-6.0000000e-05
-2.2246710e-05
 1.0702631e-05
-2.7717096e-06
-5.3818061e-18
 4.0994417e-07
-2.0589600e-07
 5.3321834e-08
 0.0000000e+00
-7.8864594e-09
 3.9610039e-09
-1.0257994e-09
-1.9922215e-21
 1.5171881e-10
-7.6201344e-11
 1.9734212e-11
 0.0000000e+00
-2.9187493e-12
 1.4659528e-12
-3.7964453e-13
 0.0000000e+00
 5.6150567e-14
-2.8201834e-14
 7.3035585e-15
 1.4186148e-26
-1.0802182e-15
 5.4254367e-16
-1.4050503e-16
-2.7271111e-28
 2.0781116e-17
-1.0437394e-17
 2.7030198e-18
 5.2506582e-30
-3.9978475e-19
 2.0079339e-19
-5.2000388e-20
-1.0089531e-31
 7.6910135e-21
-3.8628405e-21
 1.0003776e-21
 1.9425700e-33
-1.4795885e-22
 7.4312887e-23
-1.9245150e-23
 0.0000000e+00
 2.8464155e-24
-1.4296229e-24
 3.7023601e-25
 0.0000000e+00
-5.4759018e-26
 2.7502923e-26
-7.1225583e-27
-1.3833218e-38
 1.0534479e-27
-5.2909869e-28
 1.3702415e-28
 2.6624947e-40
-2.0274072e-29
 1.0209480e-29
-2.6972577e-30
 0.0000000e+00
 8.0383380e-31
-1.7942625e-30
 3.2332567e-30
 4.1888466e-41
-2.1525286e-29
 8.3092168e-29
-1.6543209e-28
-2.1720197e-39
 1.1185110e-27
-4.3189985e-27
 8.5992356e-27
 0.0000000e+00
-5.8141047e-26
 2.2450483e-25
-4.4699482e-25
-5.8695724e-36
 3.0222160e-24
-1.1669932e-23
 2.3235131e-23
 3.0503841e-34
-1.5709709e-22
 6.0661196e-22
-1.2077798e-21
-1.5857337e-32
 8.1660264e-21
-3.1532152e-20
 6.2781316e-20
 0.0000000e+00
-4.2447627e-19
 1.6390653e-18
-3.2634207e-18
-4.2848400e-29
 2.2064600e-17
-8.5199864e-17
 1.6963509e-16
 2.2274100e-27
-1.1469347e-15
 4.4287538e-15
-8.8177614e-15
 0.0000000e+00
 5.9618542e-14
-2.3021000e-13
 4.5835396e-13
 6.0185661e-24
-3.0990172e-12
 1.1966491e-11
-2.3825588e-11
-3.1284103e-22
 1.6108928e-10
-6.2202733e-10
 1.2384722e-09
 1.6261677e-20
-8.3735434e-09
 3.2333455e-08
-6.4376730e-08
 0.0000000e+00
 4.3526317e-07
-1.6807176e-06
 3.3463515e-06
 4.3941240e-17
-1.4187811e-05
 1.4736498e-04
-8.1445901e-05
-1.1000000e-03
-2.3482941e-03
-3.6512984e-03
-4.9047220e-03
-6.0800000e-03
-7.2454576e-03
-8.2248479e-03
-9.0936347e-03
-1.0000000e-02
-1.0900412e-02
-1.1799112e-02
-1.2657837e-02
-1.3500000e-02
-1.4450622e-02
-1.5438848e-02
-1.6478219e-02
-1.7640000e-02
-1.8922240e-02
-2.0243276e-02
-2.1729764e-02
-2.3520000e-02
-2.5544444e-02
-2.7743301e-02
-3.0108441e-02
-3.2700000e-02
-3.5631680e-02
-3.8990052e-02
-4.2842266e-02
-4.7200000e-02
-5.2014136e-02
-5.7283998e-02
-6.2987494e-02
-6.9200000e-02
-7.6078271e-02
-8.3384549e-02
-9.0987120e-02
-9.8860000e-02
-1.0695079e-01
-1.1527447e-01
-1.2371227e-01
-1.3210000e-01
-1.4035390e-01
-1.4838031e-01
-1.5604634e-01
-1.6328000e-01
-1.6999000e-01
-1.7555456e-01
-1.7988662e-01
-1.8308000e-01
-1.8484866e-01
-1.8497505e-01
-1.8345247e-01
-1.7990000e-01
-1.7349222e-01
-1.6461020e-01
-1.5338171e-01
-1.3960000e-01
-1.2321115e-01
-1.0442210e-01
-8.2211309e-02
-5.6020000e-02
-2.6977905e-02
 5.0169419e-03
 4.0170411e-02
 7.8380000e-02
 1.1965002e-01
 1.6513112e-01
 2.1424276e-01
 2.6584000e-01
 3.1986537e-01
 3.7598717e-01
 4.3383287e-01
 4.9310000e-01
 5.5340310e-01
 6.1385850e-01
 6.7400839e-01
 7.3356000e-01
 7.9202787e-01
 8.4921813e-01
 9.0354227e-01
 9.5374000e-01
 1.0002614e+00
 1.0424961e+00
 1.0796263e+00
 1.1113200e+00
 1.1371038e+00
 1.1537773e+00
 1.1621141e+00
 1.1641600e+00
 1.1593700e+00
 1.1477594e+00
 1.1300114e+00
 1.1056000e+00
 1.0727910e+00
 1.0340811e+00
 9.9062089e-01
 9.4234000e-01
 8.8975408e-01
 8.3334233e-01
 7.7306098e-01
 7.0952000e-01
 6.4453625e-01
 5.7876498e-01
 5.1279129e-01
 4.4720000e-01
 3.8244375e-01
 3.1940869e-01
 2.5848918e-01
 1.9976000e-01
 1.4343233e-01
 8.9767914e-02
 3.8689239e-02
-9.2000000e-03
-5.2511091e-02
-9.2185239e-02
-1.2858525e-01
-1.6144000e-01
-1.9077278e-01
-2.1680049e-01
-2.3860643e-01
-2.5590000e-01
-2.7015951e-01
-2.8141922e-01
-2.8962756e-01
-2.9504000e-01
-2.9780493e-01
-2.9719502e-01
-2.9391283e-01
-2.8898000e-01
-2.8231871e-01
-2.7410700e-01
-2.6464492e-01
-2.5400000e-01
-2.4203194e-01
-2.2928863e-01
-2.1609802e-01
-2.0258000e-01
-1.8889590e-01
-1.7507197e-01
-1.6137404e-01
-1.4806000e-01
-1.3513667e-01
-1.2275152e-01
-1.1103367e-01
-1.0006000e-01
-8.9893920e-02
-8.0609214e-02
-7.2092848e-02
-6.4220000e-02
-5.7026975e-02
-5.0499349e-02
-4.4516989e-02
-3.9100000e-02
-3.4447114e-02
-3.0282138e-02
-2.6514951e-02
-2.3200000e-02
-2.0292496e-02
-1.7719484e-02
-1.5508039e-02
-1.3640000e-02
-1.1960587e-02
-1.0462176e-02
-9.1335795e-03
-7.9400000e-03
-6.8494593e-03
-5.8123739e-03
-4.8098869e-03
-3.8400000e-03
-2.9006558e-03
-2.0168805e-03
-1.1057380e-03
-3.0000000e-04
-5.1873774e-06
 4.2660106e-05
 3.1077139e-05
 2.7579393e-17
-2.1005391e-06
 1.0550037e-06
-2.7321915e-07
 0.0000000e+00
 4.0409932e-08
-2.0296041e-08
 5.2561589e-09
 1.0202342e-20
-7.7740169e-10
 3.9045293e-10
-1.0111739e-10
 0.0000000e+00
 1.4955566e-11
-7.5114890e-12
 1.9452848e-12
 0.0000000e+00
-2.8771347e-13
 1.4450517e-13
-3.7423169e-14
-7.2667817e-26
 5.5349991e-15
-2.7799741e-15
 7.1994268e-16
 1.3984522e-27
-1.0648168e-16
 5.3480827e-17
-1.3850175e-17
-2.6889428e-29
 2.0484826e-18
-1.0288581e-18
 2.6644810e-19
 5.1749275e-31
-3.9408475e-20
 1.9793055e-20
-5.1258984e-21
-9.9544385e-33
 7.5813576e-22
-3.8077654e-22
 9.8611451e-23
 0.0000000e+00
-1.4584930e-23
 7.3253358e-24
-1.8970759e-24
 0.0000000e+00
 2.8058322e-25
-1.4092398e-25
 3.6495731e-26
 7.0868203e-38
-5.3978282e-27
 2.7110795e-27
-7.0210072e-28
-1.3635734e-39
 1.0384281e-28
-5.2155440e-29
 1.3506934e-29
 0.0000000e+00
-1.9977161e-30
 1.0033604e-30
-2.5984486e-31
-5.0452126e-43
 3.8431836e-32
-1.9302534e-32
 4.9988660e-33
 9.7081958e-45
-7.3934729e-34
 3.7133996e-34
-9.6167616e-35
 0.0000000e+00
 1.4223479e-35
-7.1437960e-36
 1.8500617e-36
 3.5952064e-48
-2.7362968e-37
 1.3743154e-37
-3.5591276e-38
-6.9141216e-50
 5.2640567e-39
-2.6438923e-39
 6.8470094e-40
 1.3294332e-51
-1.0126932e-40
 5.0862899e-41
-1.3172199e-41
 0.0000000e+00
 1.9482078e-42
-9.7849469e-43
 2.5340527e-43
 4.9226897e-55
-3.7479400e-44
 1.8824170e-44
-4.8749818e-45
-9.4657698e-57
 7.2102459e-46
-3.6213781e-46
 9.3785479e-47
 0.0000000e+00
-1.3878650e-47
 6.9963461e-48
-1.8631290e-48
-4.2754604e-60
 6.6519331e-49
-1.6721875e-48
 3.0972286e-48
 4.0279338e-59
-2.0711403e-47
 7.9957405e-47
-1.5919276e-46
-2.0903278e-57
 1.0763277e-45
-4.1561129e-45
 8.2749263e-45
 1.0865855e-55
-5.5948331e-44
 2.1603791e-43
-4.3013697e-43
-5.6477815e-54
 2.9082369e-42
-1.1229815e-41
 2.2358848e-41
 0.0000000e+00
-1.5117237e-40
 5.8373436e-40
-1.1622299e-39
 0.0000000e+00
 7.8580550e-39
-3.0342957e-38
 6.0413598e-38
 7.9329367e-49
-4.0846769e-37
 1.5772500e-36
-3.1403449e-36
-4.1237586e-47
 2.1232462e-35
-8.1986659e-35
 1.6323752e-34
 0.0000000e+00
-1.1036795e-33
 4.2617290e-33
-8.4852107e-33
-1.1140435e-43
 5.7370104e-32
-2.2152792e-31
 4.4106772e-31
 5.7910890e-42
-2.9821417e-30
 1.1515190e-29
-2.2927036e-29
 0.0000000e+00
 1.5501400e-28
-5.9856836e-28
 1.1917648e-27
 1.5648181e-38
-8.0577458e-27
 3.1114040e-26
-6.1948843e-26
-8.1340447e-37
 4.1884777e-25
-1.6173315e-24
 3.2201481e-24
 4.2278977e-35
-2.1772026e-23
 8.4070123e-23
-1.6738575e-22
 0.0000000e+00
 1.1317265e-21
-4.3700291e-21
 8.7008389e-21
 1.1424185e-31
-5.8828007e-20
 2.2715744e-19
-4.5227624e-19
-5.9385449e-30
 3.0579246e-18
-1.1807817e-17
 2.3509664e-17
 0.0000000e+00
-1.5895325e-16
 6.1377933e-16
-1.2220502e-15
-1.6046011e-26
 8.2625112e-15
-3.1904717e-14
 6.3523102e-14
 8.3404621e-25
-4.2949163e-13
 1.6584315e-12
-3.3019793e-12
-4.3356175e-23
 2.2325302e-11
-8.6206534e-11
 1.7163940e-10
 0.0000000e+00
-1.1604862e-09
 4.4810813e-09
-8.9219468e-09
-1.1713720e-19
 6.0322958e-08
-2.3293002e-07
 4.6376959e-07
 0.0000000e+00
-3.1356334e-06
 1.2107880e-05
-2.4107097e-05
 0.0000000e+00
 4.4143011e-04
 1.1506232e-03
 1.9927928e-03
 2.8800000e-03
 3.7112698e-03
 4.6254875e-03
 5.6038833e-03
 6.5600000e-03
 7.5184759e-03
 8.4890272e-03
 9.5087130e-03
 1.0600000e-02
 1.1734233e-02
 1.2902600e-02
 1.4104291e-02
 1.5340000e-02
 1.6609831e-02
 1.7910748e-02
 1.9253174e-02
 2.0640000e-02
 2.2057366e-02
 2.3526017e-02
 2.5057221e-02
 2.6640000e-02
 2.8254299e-02
 2.9906393e-02
 3.1619442e-02
 3.3400000e-02
 3.5223767e-02
 3.7084067e-02
 3.8971459e-02
 4.0900000e-02
 4.2921081e-02
 4.5054648e-02
 4.7257210e-02
 4.9480000e-02
 5.1724421e-02
 5.4011712e-02
 5.6424851e-02
 5.8960000e-02
 6.1475908e-02
 6.4038803e-02
 6.6695848e-02
 6.9420000e-02
 7.2169611e-02
 7.4995545e-02
 7.7930725e-02
 8.0960000e-02
 8.4043075e-02
 8.7170343e-02
 9.0385527e-02
 9.3700000e-02
 9.7051725e-02
 1.0046159e-01
 1.0395407e-01
 1.0754000e-01
 1.1121067e-01
 1.1489930e-01
 1.1868059e-01
 1.2260000e-01
 1.2653929e-01
 1.3052484e-01
 1.3457825e-01
 1.3870000e-01
 1.4289292e-01
 1.4712385e-01
 1.5142748e-01
 1.5584000e-01
 1.6032875e-01
 1.6488484e-01
 1.6950911e-01
 1.7420000e-01
 1.7893942e-01
 1.8367449e-01
 1.8843486e-01
 1.9328000e-01
 1.9821713e-01
 2.0322670e-01
 2.0829592e-01
 2.1340000e-01
 2.1849871e-01
 2.2361215e-01
 2.2876082e-01
 2.3396000e-01
 2.3922813e-01
 2.4456138e-01
 2.4988907e-01
 2.5518000e-01
 2.6051036e-01
 2.6589340e-01
 2.7126200e-01
 2.7660000e-01
 2.8199587e-01
 2.8740189e-01
 2.9279987e-01
 2.9820000e-01
 3.0358884e-01
 3.0895077e-01
 3.1426473e-01
 3.1954000e-01
 3.2482120e-01
 3.3008787e-01
 3.3531952e-01
 3.4052000e-01
 3.4569342e-01
 3.5077486e-01
 3.5578970e-01
 3.6078000e-01
 3.6571139e-01
 3.7057443e-01
 3.7537240e-01
 3.8010000e-01
 3.8473661e-01
 3.8927249e-01
 3.9370717e-01
 3.9804000e-01
 4.0228649e-01
 4.0653126e-01
 4.1063599e-01
 4.1450000e-01
 4.1827893e-01
 4.2196440e-01
 4.2554023e-01
 4.2900000e-01
 4.3232156e-01
 4.3551483e-01
 4.3855162e-01
 4.4142000e-01
 4.4416878e-01
 4.4680421e-01
 4.4932988e-01
 4.5170000e-01
 4.5382922e-01
 4.5580647e-01
 4.5766373e-01
 4.5938000e-01
 4.6095147e-01
 4.6235956e-01
 4.6358983e-01
 4.6464000e-01
 4.6552066e-01
 4.6625635e-01
 4.6691505e-01
 4.6736000e-01
 4.6744966e-01
 4.6832020e-01
 4.7007802e-01
 4.7212000e-01
 4.7413416e-01
 4.7592342e-01
 4.7760563e-01
 4.7920000e-01
 4.8042757e-01
 4.8155680e-01
 4.8260776e-01
 4.8344000e-01
 4.8406868e-01
 4.8453792e-01
 4.8492349e-01
 4.8512000e-01
 4.8486108e-01
 4.8443619e-01
 4.8402374e-01
 4.8352000e-01
 4.8272009e-01
 4.8171011e-01
 4.8056341e-01
 4.7928000e-01
 4.7783838e-01
 4.7623056e-01
 4.7452848e-01
 4.7270000e-01
 4.7056916e-01
 4.6830823e-01
 4.6596358e-01
 4.6348000e-01
 4.6085412e-01
 4.5804923e-01
 4.5511293e-01
 4.5210000e-01
 4.4898443e-01
 4.4574945e-01
 4.4238244e-01
 4.3890000e-01
 4.3532838e-01
 4.3156943e-01
 4.2767853e-01
 4.2374000e-01
 4.1970702e-01
 4.1557283e-01
 4.1133598e-01
 4.0700000e-01
 4.0257657e-01
 3.9805082e-01
 3.9343159e-01
 3.8874000e-01
 3.8398196e-01
 3.7915204e-01
 3.7426783e-01
 3.6934000e-01
 3.6434407e-01
 3.5926065e-01
 3.5408479e-01
 3.4884000e-01
 3.4356651e-01
 3.3824941e-01
 3.3289014e-01
 3.2750000e-01
 3.2207566e-01
 3.1661512e-01
 3.1108720e-01
 3.0550000e-01
 2.9992301e-01
 2.9431698e-01
 2.8868002e-01
 2.8304000e-01
 2.7739240e-01
 2.7169667e-01
 2.6601539e-01
 2.6038000e-01
 2.5469788e-01
 2.4901351e-01
 2.4335767e-01
 2.3772000e-01
 2.3208131e-01
 2.2643604e-01
 2.2080854e-01
 2.1522000e-01
 2.0966386e-01
 2.0414495e-01
 1.9864937e-01
 1.9320000e-01
 1.8785549e-01
 1.8251648e-01
 1.7719430e-01
 1.7196000e-01
 1.6680908e-01
 1.6168546e-01
 1.5662707e-01
 1.5166000e-01
 1.4671600e-01
 1.4183951e-01
 1.3705479e-01
 1.3236000e-01
 1.2774069e-01
 1.2310502e-01
 1.1853677e-01
 1.1412000e-01
 1.0976299e-01
 1.0544691e-01
 1.0114585e-01
 9.6900000e-02
 9.2812725e-02
 8.8735828e-02
 8.4679163e-02
 8.0740000e-02
 7.6907513e-02
 7.3107555e-02
 6.9363925e-02
 6.5720000e-02
 6.2141579e-02
 5.8611314e-02
 5.5120464e-02
 5.1680000e-02
 4.8312569e-02
 4.4984098e-02
 4.1727274e-02
 3.8580000e-02
 3.5509856e-02
 3.2498101e-02
 2.9539416e-02
 2.6600000e-02
 2.3643654e-02
 2.0814644e-02
 1.8098398e-02
 1.5400000e-02
 1.2728587e-02
 1.0167925e-02
 7.6613955e-03
 5.1400000e-03
 2.7595211e-03
 9.9327966e-04
 6.1537197e-05
-1.6000000e-04
-3.2745105e-05
-2.3466733e-05
-8.6329744e-05
-4.0000000e-05
-4.5880988e-06
 1.9904813e-06
-5.1548408e-07
-1.0012824e-18
 7.6241644e-08
-3.8292653e-08
 9.9168243e-09
 0.0000000e+00
-1.4667281e-09
 7.3666971e-10
-1.9077874e-10
-3.7066162e-22
 2.8216749e-11
-1.4171968e-11
 3.6701797e-12
 7.1256647e-24
-5.4283061e-13
 2.7263871e-13
-7.0606501e-14
 0.0000000e+00
 1.0442914e-14
-5.2449926e-15
 1.3583198e-15
 2.6366382e-27
-2.0089959e-16
 1.0090257e-16
-2.6131203e-17
-5.0769826e-29
 3.8648834e-18
-1.9411522e-18
 5.0270912e-19
 0.0000000e+00
-7.4352188e-20
 3.7343666e-20
-9.6710609e-21
 0.0000000e+00
 1.4303790e-21
-7.1841321e-22
 1.8605077e-22
 3.6099631e-34
-2.7517468e-23
 1.3820752e-23
-3.5792236e-24
-6.9477923e-36
 5.2937793e-25
-2.6588206e-25
 6.8856698e-26
 0.0000000e+00
-1.0184112e-26
 5.1150088e-27
-1.3246573e-27
-2.5719816e-39
 1.9592080e-28
-9.8401958e-29
 2.5483607e-29
 4.9517700e-41
-3.7691021e-30
 1.8930457e-30
-4.9025075e-31
 0.0000000e+00
 7.2509558e-32
-3.6418198e-32
 9.4313882e-33
 1.8322258e-44
-1.3949306e-33
 7.0060916e-34
-1.8143998e-34
-3.5242656e-46
 2.6835517e-35
-1.3478240e-35
 3.4905216e-36
 6.7831604e-48
-5.1625864e-37
 2.5929284e-37
-6.7150259e-38
 0.0000000e+00
 9.9317250e-39
-4.9882463e-39
 1.2918291e-39
 2.5091915e-51
-1.9106540e-40
 9.5963315e-41
-2.4852061e-41
-4.8276813e-53
 3.6756944e-42
-1.8461314e-42
 4.7810112e-43
 0.0000000e+00
-7.0712592e-44
 3.5515666e-44
-9.1976552e-45
-1.7854864e-56
 1.3603608e-45
-6.8324634e-46
 1.7694345e-46
 3.4334317e-58
-2.6170467e-47
 1.3144216e-47
-3.4040179e-48
-6.6113314e-60
 5.0346448e-49
-2.5286693e-49
 6.5486110e-50
 1.2713620e-61
-9.6855924e-51
 4.8646252e-51
-1.2598144e-51
-2.4454505e-63
 1.8633033e-52
-9.3585108e-53
 2.4236166e-53
 4.7098016e-65
-3.5846017e-54
 1.8003797e-54
-4.6625260e-55
 0.0000000e+00
 6.8960160e-56
-3.4635500e-56
 8.9697146e-57
 1.7411014e-68
-1.3266477e-57
 6.6631381e-58
-1.7255835e-58
-3.3521951e-70
 2.5521898e-59
-1.2818470e-59
 3.3196580e-60
 0.0000000e+00
-4.9098738e-61
 2.4660026e-61
-6.3863203e-62
-1.2406280e-73
 9.4455596e-63
-4.7440678e-63
 1.2285931e-63
 2.3859592e-75
-1.8171260e-64
 9.1265838e-65
-2.3635534e-65
 0.0000000e+00
 3.4957664e-66
-1.7557618e-66
 4.5469771e-67
 8.8304823e-79
-6.7251157e-68
 3.3777147e-68
-8.7474230e-69
-1.6995710e-80
 1.2937701e-69
-6.4980092e-70
 1.6828193e-70
 3.2659729e-82
-2.4889403e-71
 1.2500796e-71
-3.2373887e-72
 0.0000000e+00
 4.7881951e-73
-2.4048890e-73
 6.2280516e-74
 1.2096760e-85
-9.2114753e-75
 4.6264981e-75
-1.1981455e-75
-2.3292698e-87
 1.7720932e-76
-8.9004046e-77
 2.3049787e-77
 0.0000000e+00
-3.4091327e-78
 1.7122497e-78
-4.4342918e-79
-8.6164409e-91
 6.5584508e-80
-3.2940066e-80
 8.5306403e-81
 1.6568190e-92
-1.2617073e-81
 6.3369725e-82
-1.6411149e-82
-3.1870755e-94
 2.4272578e-83
-1.2190979e-83
 3.1571254e-84
 6.1273780e-96
-4.6673174e-85
 2.3367394e-85
-5.9034625e-86
-9.5553014e-98
-2.5272281e-87
 3.9934295e-86
-8.7324935e-86
-1.1596512e-96
 5.9814760e-85
-2.3102573e-84
 4.5999312e-84
 0.0000000e+00
-3.1101148e-83
 1.2009344e-82
-2.3910910e-82
-3.1397104e-93
 1.6166616e-81
-6.2425488e-81
 1.2429073e-80
 1.6318440e-91
-8.4035300e-80
 3.2449244e-79
-6.4607270e-79
-8.4825208e-90
 4.3682189e-78
-1.6867365e-77
 3.3583351e-77
 4.4097326e-88
-2.2706335e-76
 8.7677847e-76
-1.7456882e-75
-2.2920304e-86
 1.1802926e-74
-4.5575613e-74
 9.0742203e-74
 0.0000000e+00
-6.1352509e-73
 2.3690551e-72
-4.7168489e-72
 0.0000000e+00
 3.1891502e-71
-1.2314529e-70
 2.4518540e-70
 3.2192710e-81
-1.6577446e-69
 6.4011860e-69
-1.2744924e-68
-1.6734601e-79
 8.6170825e-68
-3.3273853e-67
 6.6249086e-67
 0.0000000e+00
-4.4792252e-66
 1.7296002e-65
-3.4436780e-65
-4.5221742e-76
 2.3283354e-64
-8.9905937e-64
 1.7900501e-63
 2.3503201e-74
-1.2102865e-62
 4.6733791e-62
-9.3048166e-62
 0.0000000e+00
 6.2911613e-61
-2.4292581e-60
 4.8367146e-60
 6.3509289e-71
-3.2701936e-59
 1.2627469e-58
-2.5141611e-58
-3.3011935e-69
 1.6998716e-57
-6.5638545e-57
