Patient Number 035713C Lead Number 1 Time Step .0018 Data Points 2737
0.0000000e+00
  5.3642167e-60
  1.3534331e-58
  1.8217705e-57
  1.9287872e-70
 -7.2804098e-55
 -1.9007354e-53
 -2.5587124e-52
 -5.1534345e-65
  1.0225481e-49
  2.6696209e-48
  3.5937627e-47
  0.0000000e+00
 -1.4361893e-44
 -3.7495359e-43
 -5.0475116e-42
 -2.0045735e-54
  2.0171566e-39
  5.2662982e-38
  7.0893310e-37
  5.5832986e-49
 -2.8331367e-34
 -7.3966212e-33
 -9.9571072e-32
  0.0000000e+00
  3.9791972e-29
  1.0388702e-27
  1.3984956e-26
  0.0000000e+00
 -5.5888621e-24
 -1.4591140e-22
 -1.9642151e-21
 -1.5382788e-33
  7.8496685e-19
  2.0493548e-17
  2.7587794e-16
  0.0000000e+00
 -1.1025016e-13
 -2.8783599e-12
 -3.8747608e-11
 -6.1325185e-23
  1.5484856e-08
  4.0427140e-07
  5.4421790e-06
 -6.0000000e-05
  3.2969960e-03
  1.1479274e-02
  2.0660698e-02
  3.0900000e-02
  4.2219636e-02
  5.4636817e-02
  6.7957393e-02
  8.2260000e-02
  9.7326989e-02
  1.1308198e-01
  1.2930694e-01
  1.4586000e-01
  1.6257742e-01
  1.7911412e-01
  1.9510665e-01
  2.1030000e-01
  2.2420374e-01
  2.3664502e-01
  2.4736280e-01
  2.5622000e-01
  2.6284121e-01
  2.6736275e-01
  2.6970035e-01
  2.6920000e-01
  2.6655771e-01
  2.6137367e-01
  2.5387377e-01
  2.4390000e-01
  2.3227278e-01
  2.1902650e-01
  2.0467343e-01
  1.8950000e-01
  1.7376426e-01
  1.5774023e-01
  1.4171889e-01
  1.2580000e-01
  1.1040869e-01
  9.5522834e-02
  8.1358004e-02
  6.8080000e-02
  5.5650096e-02
  4.4434770e-02
  3.4237737e-02
  2.5260000e-02
  1.7361904e-02
  1.0424669e-02
  4.4186230e-03
  3.0000000e-04
  1.0344161e-05
  7.6841434e-07
  2.9432667e-08
  0.0000000e+00
 -7.3649083e-11
 -5.4710103e-12
 -2.0955677e-13
 -1.7163998e-27
  5.2437190e-16
  3.8952883e-17
  1.4920170e-18
  0.0000000e+00
 -3.7334599e-21
 -2.7733947e-22
 -1.0622967e-23
 -8.3055729e-38
  2.6581749e-26
  1.9746212e-27
  7.5636280e-29
  0.0000000e+00
 -1.0420190e-30
 -2.2277529e-29
 -2.9970462e-28
 -9.4274647e-40
  1.1977190e-25
  3.1269489e-24
  4.2094038e-23
  0.0000000e+00
 -1.6822203e-20
 -4.3918622e-19
 -5.9121918e-18
 -1.8599447e-29
  2.3627120e-15
  6.1684584e-14
  8.3037917e-13
  2.6205082e-24
 -3.3184763e-10
 -8.6637231e-09
 -1.1662841e-07
  0.0000000e+00
  8.4733664e-05
 -1.9231628e-03
 -5.6889934e-03
 -8.8000000e-03
 -1.1500340e-02
 -1.4124081e-02
 -1.7237569e-02
 -2.1200000e-02
 -2.6992858e-02
 -3.4610873e-02
 -4.5694863e-02
 -6.1040000e-02
 -8.0916080e-02
 -1.0422894e-01
 -1.2931497e-01
 -1.5354000e-01
 -1.7385276e-01
 -1.8443296e-01
 -1.8137778e-01
 -1.5740000e-01
 -1.1097593e-01
 -3.6965325e-02
  6.5323425e-02
  1.9758000e-01
  3.5707163e-01
  5.3323771e-01
  7.1381152e-01
  8.8590000e-01
  1.0289480e+00
  1.1293495e+00
  1.1642104e+00
  1.1365600e+00
  1.0474940e+00
  9.0772812e-01
  7.3093658e-01
  5.3476000e-01
  3.4018626e-01
  1.6192414e-01
  6.2895712e-03
 -1.1684000e-01
 -2.0851305e-01
 -2.6572257e-01
 -2.9352201e-01
 -2.9520000e-01
 -2.7699884e-01
 -2.4614167e-01
 -2.0711022e-01
 -1.6590000e-01
 -1.2681029e-01
 -9.3187644e-02
 -6.6770401e-02
 -4.6460000e-02
 -3.1631333e-02
 -2.1221113e-02
 -1.4235885e-02
 -9.5600000e-03
 -6.1543730e-03
 -3.2086568e-03
 -5.2249375e-04
  4.0000000e-05
  1.0196677e-06
  7.5745855e-08
  2.9013026e-09
  0.0000000e+00
 -7.2599019e-12
 -5.3930065e-13
 -2.0656898e-14
 -3.2570237e-28
  5.1689558e-17
  3.8397506e-18
  1.4707443e-19
  2.3074181e-33
 -3.6802294e-22
 -2.7338526e-23
 -1.0471508e-24
  0.0000000e+00
  2.6202756e-27
  1.9464675e-28
  7.4555780e-30
  0.0000000e+00
 -1.8656022e-32
 -1.3858596e-33
 -5.3082747e-35
 -8.2326285e-49
  1.3282845e-37
  9.8671403e-39
  3.7794227e-40
  6.0137206e-54
 -9.4572133e-43
 -7.0252758e-44
 -2.6908999e-45
  0.0000000e+00
  6.7546968e-48
  1.0558583e-48
  7.4993896e-48
  4.7219244e-59
 -2.9893536e-45
 -7.8044646e-44
 -1.0506134e-42
 -6.6234450e-54
  4.1986068e-40
  1.0961527e-38
  1.4756075e-37
  0.0000000e+00
 -5.8970272e-35
 -1.5395683e-33
 -2.0725202e-32
  0.0000000e+00
  8.2824927e-30
  2.1623545e-28
  2.9108961e-27
  1.8347116e-38
 -1.1632927e-24
 -3.0370702e-23
 -4.0884118e-22
 -2.5810543e-33
  1.6338678e-19
  4.2656258e-18
  5.7422562e-17
  0.0000000e+00
 -2.2948000e-14
 -5.9911568e-13
 -8.0651136e-12
 -5.0779625e-23
  3.2230925e-09
  8.4146995e-08
  1.1327613e-06
  7.1442852e-18
  7.6481021e-04
 -1.8613762e-05
 -1.0959964e-06
  0.0000000e+00
  2.7425013e-09
  2.0372627e-10
  7.8033519e-12
  0.0000000e+00
 -1.9526253e-14
 -1.4505046e-15
 -5.5558852e-17
 -8.8857292e-31
  1.3902439e-19
  1.0327404e-20
  3.9557181e-22
  6.2400130e-36
 -9.8983557e-25
 -7.3529777e-26
 -2.8164199e-27
  0.0000000e+00
  7.0475007e-30
  5.2352246e-31
  2.0052544e-32
  0.0000000e+00
 -5.0177290e-35
 -3.7274119e-36
 -1.4277151e-37
  0.0000000e+00
  3.5725579e-40
  2.6538689e-41
  1.0165146e-42
  3.2235004e-56
 -2.5436148e-45
 -1.8895177e-46
 -7.2340672e-48
 -1.8519693e-61
 -1.3345701e-48
 -3.5313802e-47
 -4.7540176e-46
  0.0000000e+00
  1.8998666e-43
  4.9600831e-42
  6.6771135e-41
  0.0000000e+00
 -2.6684007e-38
 -6.9665359e-37
 -9.3781395e-36
  0.0000000e+00
  3.7478221e-33
  9.7846390e-32
  1.3171784e-30
  0.0000000e+00
 -5.2638911e-28
 -1.3742721e-26
 -1.8500035e-25
  0.0000000e+00
  7.3932403e-23
  1.9301927e-21
  2.5983669e-20
  3.2808725e-31
 -1.0383954e-17
 -2.7109942e-16
 -3.6494582e-15
 -4.6063620e-26
  1.4584471e-12
  3.8076456e-11
  5.1257371e-10
  0.0000000e+00
 -2.0484181e-07
 -5.3479144e-06
  8.2863300e-04
  3.4400000e-03
  6.2423169e-03
  9.1652719e-03
  1.2509792e-02
  1.6180000e-02
  2.0180536e-02
  2.4524546e-02
  2.9363650e-02
  3.4600000e-02
  4.0269474e-02
  4.6510055e-02
  5.3255021e-02
  6.0640000e-02
  6.8512300e-02
  7.6947599e-02
  8.6106226e-02
  9.5940000e-02
  1.0630237e-01
  1.1743840e-01
  1.2916849e-01
  1.4150000e-01
  1.5434234e-01
  1.6796783e-01
  1.8210331e-01
  1.9656000e-01
  2.1169887e-01
  2.2702544e-01
  2.4278399e-01
  2.5870000e-01
  2.7482454e-01
  2.9099957e-01
  3.0716123e-01
  3.2306000e-01
  3.3879108e-01
  3.5411792e-01
  3.6897364e-01
  3.8318000e-01
  3.9663604e-01
  4.0923514e-01
  4.2077966e-01
  4.3120000e-01
  4.4050738e-01
  4.4849258e-01
  4.5516241e-01
  4.6046000e-01
  4.6428243e-01
  4.6675651e-01
  4.6816582e-01
  4.7360000e-01
  4.7863017e-01
  4.8232487e-01
  4.8437627e-01
  4.8504000e-01
  4.8373479e-01
  4.8094666e-01
  4.7680390e-01
  4.7126000e-01
  4.6437304e-01
  4.5607842e-01
  4.4688815e-01
  4.3650000e-01
  4.2507459e-01
  4.1274857e-01
  3.9957077e-01
  3.8558000e-01
  3.7097747e-01
  3.5584059e-01
  3.4001614e-01
  3.2390000e-01
  3.0736109e-01
  2.9056308e-01
  2.7359703e-01
  2.5660000e-01
  2.3960209e-01
  2.2268528e-01
  2.0597417e-01
  1.8964000e-01
  1.7365960e-01
  1.5832411e-01
  1.4342218e-01
  1.2928000e-01
  1.1556011e-01
  1.0257762e-01
  9.0102696e-02
  7.8180000e-02
  6.6938532e-02
  5.6267525e-02
  4.6103049e-02
  3.6500000e-02
  2.7578531e-02
  1.8986357e-02
  1.1025724e-02
  3.5600000e-03
 -5.4565526e-05
 -6.3158562e-05
  5.0499385e-06
  1.5959456e-19
 -1.2636413e-08
 -9.3869392e-10
 -3.5954906e-11
 -1.1382005e-24
  8.9969619e-14
  6.6833788e-15
  2.5599426e-16
  8.1183253e-30
 -6.4057201e-19
 -4.7584789e-20
 -1.8226459e-21
 -5.7623824e-35
  4.5607895e-24
  3.3879752e-25
  1.2977002e-26
  0.0000000e+00
 -3.2472229e-29
 -2.4121943e-30
 -9.2394570e-32
  0.0000000e+00
  2.3119805e-34
  1.7174510e-35
  6.5783734e-37
  0.0000000e+00
 -1.6461001e-39
 -1.2228028e-40
 -4.6837164e-42
 -1.4721087e-55
  1.1720019e-44
  8.7061974e-46
  3.3347453e-47
  1.0514407e-60
 -8.3445013e-50
 -6.1986995e-51
 -2.3742953e-52
 -7.4749109e-66
  5.9411770e-55
  4.4135029e-56
  1.7051886e-57
  2.3924380e-70
 -5.8872959e-57
 -1.5359265e-55
 -2.0676135e-54
  0.0000000e+00
  8.2628837e-52
  2.1572351e-50
  2.9040045e-49
  0.0000000e+00
 -1.1605385e-46
 -3.0298799e-45
 -4.0787324e-44
  0.0000000e+00
  1.6299996e-41
  4.2555269e-40
  5.7286613e-39
  7.2322875e-50
 -2.2893670e-36
 -5.9769726e-35
 -8.0460194e-34
 -1.0154369e-44
  3.2154618e-31
  8.3947776e-30
  1.1300795e-28
  1.4270501e-39
 -4.5161804e-26
 -1.1790633e-24
 -1.5872193e-23
 -2.0037375e-34
  6.3430657e-21
  1.6560180e-19
  2.2292812e-18
  0.0000000e+00
 -8.9089626e-16
 -2.3259104e-14
 -3.1310701e-13
  0.0000000e+00
  1.2512816e-10
  3.2667877e-09
  4.3976505e-08
  0.0000000e+00
 -1.8824501e-05
 -1.3826859e-05
 -3.3809625e-07
 -1.0668549e-20
  8.4601501e-10
  6.2846090e-11
  2.4072014e-12
  7.5769744e-26
 -6.0235170e-15
 -4.4745600e-16
 -1.7138961e-17
 -5.4021195e-31
  4.2886659e-20
  3.1858286e-21
  1.2202718e-22
  3.8518599e-36
 -3.0534744e-25
 -2.2682686e-26
 -8.6881766e-28
  0.0000000e+00
  2.1740341e-30
  1.6149778e-31
  6.1858689e-33
  0.0000000e+00
 -1.5478841e-35
 -1.1498432e-36
 -4.4042583e-38
  0.0000000e+00
  1.1020734e-40
  8.1867343e-42
  3.1357747e-43
  9.8858363e-57
 -7.8466192e-46
 -5.8288485e-47
 -2.2326309e-48
 -7.0693454e-62
  5.5866910e-51
  4.1500644e-52
  1.5896042e-53
  4.9946686e-67
 -3.9776358e-56
 -2.9507108e-57
 -5.8237713e-59
  6.8944869e-70
 -2.1955618e-56
 -5.7321439e-55
 -7.7164387e-54
 -1.9474270e-64
  3.0837502e-51
  8.0509111e-50
  1.0837892e-48
  0.0000000e+00
 -4.3311888e-46
 -1.1307666e-44
 -1.5222037e-43
 -3.8410552e-54
  6.0832413e-41
  1.5881843e-39
  2.1379655e-38
  0.0000000e+00
 -8.5440341e-36
 -2.2306365e-34
 -3.0028153e-33
  0.0000000e+00
  1.2000267e-30
  3.1329736e-29
  4.2175142e-28
  0.0000000e+00
 -1.6854615e-25
 -4.4003241e-24
 -5.9235830e-23
  0.0000000e+00
  2.3672643e-20
  6.1803433e-19
  8.3197908e-18
  2.0990516e-28
 -3.3248701e-15
 -8.6804157e-14
 -1.1685313e-12
  0.0000000e+00
  4.6698466e-10
  1.2191817e-08
  1.6412255e-07
  4.1446013e-18
 -6.5588929e-05
 -2.3651497e-06
 -9.0592616e-08
  0.0000000e+00
  2.2668904e-10
  1.6839559e-11
  6.4500766e-13
  0.0000000e+00
 -1.6139965e-15
 -1.1989547e-16
 -4.5923708e-18
  0.0000000e+00
  1.1491446e-20
  8.5364020e-22
  3.2697084e-23
  0.0000000e+00
 -8.1817601e-26
 -6.0778074e-27
 -2.3279899e-28
 -1.4730414e-41
  5.8253069e-31
  4.3273199e-32
  1.6574986e-33
  0.0000000e+00
 -4.1475429e-36
 -3.0809956e-37
 -1.1801175e-38
 -7.4409770e-52
  2.9529967e-41
  2.1936288e-42
  8.4022830e-44
  0.0000000e+00
 -2.1024953e-46
 -1.5618352e-47
 -5.9823164e-49
  0.0000000e+00
  1.4969493e-51
  1.1120064e-52
  4.2593316e-54
  0.0000000e+00
 -1.0658085e-56
 -7.9173413e-58
 -3.0325888e-59
  0.0000000e+00
  7.5884180e-62
  5.6370442e-63
  2.1591638e-64
  1.3624420e-77
 -5.4028551e-67
 -4.0135022e-68
 -1.5372966e-69
  0.0000000e+00
  3.8467626e-72
  2.8575615e-73
  1.0945352e-74
  6.9170305e-88
 -2.7388450e-77
 -2.0345467e-78
 -7.7929486e-80
  0.0000000e+00
  1.9500221e-82
  1.4485642e-83
  5.5396215e-85
  0.0000000e+00
  3.5255663e-85
  9.2405283e-84
  1.2439457e-82
  3.1391352e-93
 -4.9712286e-80
 -1.2978652e-78
 -1.7471467e-77
  0.0000000e+00
  6.9821900e-75
  1.8228776e-73
  2.4539025e-72
  6.1909057e-83
 -9.8066255e-70
 -2.5602680e-68
 -3.4465552e-67
  0.0000000e+00
  1.3773602e-64
  3.5959476e-63
  4.8407557e-62
  1.2213847e-72
 -1.9345299e-59
 -5.0505804e-58
 -6.7989382e-57
  0.0000000e+00
  2.7170859e-54
  7.0936411e-53
  9.5492447e-52
  0.0000000e+00
 -3.8162015e-49
 -9.9631608e-48
 -1.3412105e-46
 -3.3839821e-57
  5.3599314e-44
  1.3993459e-42
  1.8837570e-41
  0.0000000e+00
 -7.5281308e-39
 -1.9654093e-37
 -2.6457744e-36
 -6.6763114e-47
  1.0573410e-33
  2.7604566e-32
  3.7160430e-31
  0.0000000e+00
 -1.4850566e-28
 -3.8771165e-27
 -5.2192567e-26
 -1.3171555e-36
  2.0857917e-23
  5.4454877e-22
  7.3305505e-21
  0.0000000e+00
 -2.9295362e-18
 -7.6482964e-17
 -1.0295905e-15
  0.0000000e+00
  4.1145922e-13
  1.0742185e-11
  1.4460804e-10
  3.6483403e-21
 -5.7790270e-08
 -1.5087614e-06
 -3.7185489e-05
  1.0000000e-04
  6.7673840e-03
  1.5433556e-02
  2.5078742e-02
  3.5780000e-02
  4.7629116e-02
  6.0449155e-02
  7.4224795e-02
  8.8860000e-02
  1.0424788e-01
  1.2022600e-01
  1.3665941e-01
  1.5328000e-01
  1.6999056e-01
  1.8627972e-01
  2.0197160e-01
  2.1670000e-01
  2.2989987e-01
  2.4164911e-01
  2.5153532e-01
  2.5950000e-01
  2.6510942e-01
  2.6862178e-01
  2.6983743e-01
  2.6828000e-01
  2.6445066e-01
  2.5828792e-01
  2.4970655e-01
  2.3890000e-01
  2.2663897e-01
  2.1276365e-01
  1.9799027e-01
  1.8258000e-01
  1.6663887e-01
  1.5062023e-01
  1.3461262e-01
  1.1892000e-01
  1.0371905e-01
  8.9118090e-02
  7.5353291e-02
  6.2400000e-02
  5.0566558e-02
  3.9748708e-02
  3.0097247e-02
  2.1640000e-02
  1.4138404e-02
  7.6085054e-03
  1.9826690e-03
 -6.0000000e-05
 -2.7717096e-06
 -2.0589600e-07
 -7.8864594e-09
 -4.9873300e-22
  1.9734212e-11
  1.4659528e-12
  5.6150567e-14
  0.0000000e+00
 -1.4050503e-16
 -1.0437394e-17
 -3.9978475e-19
 -2.5282992e-32
  1.0003776e-21
  7.4312887e-23
  2.8464155e-24
  0.0000000e+00
 -7.1225583e-27
 -5.2909869e-28
 -2.0274072e-29
 -1.4831433e-42
  3.2332567e-30
  8.3092168e-29
  1.1185110e-27
  0.0000000e+00
 -4.4699482e-25
 -1.1669932e-23
 -1.5709709e-22
 -3.9640260e-33
  6.2781316e-20
  1.6390653e-18
  2.2064600e-17
  5.5689289e-28
 -8.8177614e-15
 -2.3021000e-13
 -3.0990172e-12
  0.0000000e+00
  1.2384722e-09
  3.2333455e-08
  4.3526317e-07
  1.0987045e-17
 -8.1445901e-05
 -3.6512984e-03
 -7.2454576e-03
 -1.0000000e-02
 -1.2657837e-02
 -1.5438848e-02
 -1.8922240e-02
 -2.3520000e-02
 -3.0108441e-02
 -3.8990052e-02
 -5.2014136e-02
 -6.9200000e-02
 -9.0987120e-02
 -1.1527447e-01
 -1.4035390e-01
 -1.6328000e-01
 -1.7988662e-01
 -1.8497505e-01
 -1.7349222e-01
 -1.3960000e-01
 -8.2211309e-02
  5.0169419e-03
  1.1965002e-01
  2.6584000e-01
  4.3383287e-01
  6.1385850e-01
  7.9202787e-01
  9.5374000e-01
  1.0796263e+00
  1.1537773e+00
  1.1593700e+00
  1.1056000e+00
  9.9062089e-01
  8.3334233e-01
  6.4453625e-01
  4.4720000e-01
  2.5848918e-01
  8.9767914e-02
 -5.2511091e-02
 -1.6144000e-01
 -2.3860643e-01
 -2.8141922e-01
 -2.9780493e-01
 -2.8898000e-01
 -2.6464492e-01
 -2.2928863e-01
 -1.8889590e-01
 -1.4806000e-01
 -1.1103367e-01
 -8.0609214e-02
 -5.7026975e-02
 -3.9100000e-02
 -2.6514951e-02
 -1.7719484e-02
 -1.1960587e-02
 -7.9400000e-03
 -4.8098869e-03
 -2.0168805e-03
 -5.1873774e-06
  0.0000000e+00
 -2.7321915e-07
 -2.0296041e-08
 -7.7740169e-10
 -4.9212614e-23
  1.9452848e-12
  1.4450517e-13
  5.5349991e-15
  0.0000000e+00
 -1.3850175e-17
 -1.0288581e-18
 -3.9408475e-20
 -2.4849119e-33
  9.8611451e-23
  7.3253358e-24
  2.8058322e-25
  1.7679435e-38
 -7.0210072e-28
 -5.2155440e-29
 -1.9977161e-30
  0.0000000e+00
  4.9988660e-33
  3.7133996e-34
  1.4223479e-35
  8.9989636e-49
 -3.5591276e-38
 -2.6438923e-39
 -1.0126932e-40
  0.0000000e+00
  2.5340527e-43
  1.8824170e-44
  7.2102464e-46
  4.5498705e-59
 -1.8836448e-48
 -2.2078059e-48
 -2.7921735e-47
  0.0000000e+00
  1.1156419e-44
  2.9126659e-43
  3.9209425e-42
  9.8925704e-53
 -1.5669414e-39
 -4.0908975e-38
 -5.5070421e-37
 -1.3896940e-47
  2.2008005e-34
  5.7457473e-33
  7.7347508e-32
  0.0000000e+00
 -3.0910683e-29
 -8.0700170e-28
 -1.0863612e-26
 -2.7418171e-37
  4.3414673e-24
  1.1334500e-22
  1.5258161e-21
  0.0000000e+00
 -6.0976777e-19
 -1.5919532e-17
 -2.1430392e-16
 -5.4076933e-27
  8.5643102e-14
  2.2359301e-12
  3.0099414e-11
  0.0000000e+00
 -1.2028745e-08
 -3.1404086e-07
 -4.2275229e-06
 -1.0664802e-16
  5.5727379e-04
  7.6670344e-06
  2.9367134e-07
  1.8518173e-20
 -7.3485100e-10
 -5.4588289e-11
 -2.0909018e-12
  0.0000000e+00
  5.2320437e-15
  3.8866153e-16
  1.4886949e-17
  9.3906002e-31
 -3.7251472e-20
 -2.7672196e-21
 -1.0599315e-22
  0.0000000e+00
  2.6522564e-25
  1.9702244e-26
  7.5465744e-28
  4.7680990e-41
 -1.8883721e-30
 -1.4027742e-31
 -5.3730630e-33
  0.0000000e+00
  1.3444964e-35
  9.9875702e-37
  3.8255511e-38
  2.4161793e-51
 -9.5726399e-41
 -7.1110203e-42
 -2.7237427e-43
 -1.7194177e-56
  6.8155950e-46
  5.0628602e-47
  1.9266372e-48
  0.0000000e+00
  5.0434192e-48
  1.3179756e-46
  1.7742237e-45
  4.4763589e-56
 -7.0903987e-43
 -1.8511282e-41
 -2.4919327e-40
  0.0000000e+00
  9.9586068e-38
  2.5999466e-36
  3.4999693e-35
  8.8309829e-46
 -1.3987062e-32
 -3.6516770e-31
 -4.9157769e-30
  0.0000000e+00
  1.9645109e-27
  5.1288534e-26
  6.9043069e-25
  1.7422444e-35
 -2.7591948e-22
 -7.2035771e-21
 -9.6972372e-20
 -2.4460999e-30
  3.8753443e-17
  1.0117568e-15
  1.3619964e-14
  0.0000000e+00
 -5.4429986e-12
 -1.4210327e-10
 -1.9129511e-09
 -4.8284944e-20
  7.6448004e-07
  4.7458688e-05
  1.9986778e-03
  4.6400000e-03
  7.5153740e-03
  1.0612322e-02
  1.4092851e-02
  1.7920000e-02
  2.2050144e-02
  2.6644740e-02
  3.1619468e-02
  3.7080000e-02
  4.2938203e-02
  4.9476271e-02
  5.6454264e-02
  6.4000000e-02
  7.2188224e-02
  8.0945142e-02
  9.0401505e-02
  1.0046000e-01
  1.1121036e-01
  1.2259992e-01
  1.3456572e-01
  1.4714000e-01
  1.6030664e-01
  1.7421116e-01
  1.8840399e-01
  2.0324000e-01
  2.1849824e-01
  2.3396692e-01
  2.4989299e-01
  2.6590000e-01
  2.8199808e-01
  2.9820358e-01
  3.1425530e-01
  3.3010000e-01
  3.4567083e-01
  3.6079379e-01
  3.7536034e-01
  3.8928000e-01
  4.0229224e-01
  4.1449626e-01
  4.2556384e-01
  4.3548000e-01
  4.4420090e-01
  4.5163662e-01
  4.5770717e-01
  4.6232000e-01
  4.6554278e-01
  4.6728448e-01
  4.6999579e-01
  4.7592000e-01
  4.8040675e-01
  4.8349874e-01
  4.8486870e-01
  4.8440000e-01
  4.8266139e-01
  4.7932405e-01
  4.7450609e-01
  4.6832000e-01
  4.6084841e-01
  4.5208677e-01
  4.4240209e-01
  4.3154000e-01
  4.1974307e-01
  4.0697654e-01
  3.9345649e-01
  3.7914000e-01
  3.6435747e-01
  3.4883399e-01
  3.3289042e-01
  3.1662000e-01
  2.9991900e-01
  2.8304376e-01
  2.6602523e-01
  2.4900000e-01
  2.3207909e-01
  2.1521014e-01
  1.9865752e-01
  1.8252000e-01
  1.6681231e-01
  1.5166394e-01
  1.3704183e-01
  1.2312000e-01
  1.0975701e-01
  9.6938791e-02
  8.4637285e-02
  7.3120000e-02
  6.2130466e-02
  5.1686626e-02
  4.1730550e-02
  3.2500000e-02
  2.3663445e-02
  1.5390673e-02
  7.6462607e-03
  6.0000000e-04
 -7.1183765e-05
 -4.5326807e-05
 -1.3531269e-06
 -8.5695340e-20
  3.3859166e-09
  2.5152228e-10
  9.6340881e-12
  6.0880493e-25
 -2.4107287e-14
 -1.7908059e-15
 -6.8593456e-17
 -8.6635860e-30
  1.7164075e-19
  1.2750306e-20
  4.8837650e-22
  0.0000000e+00
 -1.2220599e-24
 -9.0780521e-26
 -3.4771773e-27
  0.0000000e+00
  8.7009075e-30
  6.4634552e-31
  2.4757051e-32
  0.0000000e+00
 -6.1949331e-35
 -4.6018962e-36
 -1.7626698e-37
 -2.2271614e-50
  4.4107119e-40
  3.2764903e-41
  1.2549980e-42
  1.5843439e-55
 -3.1403696e-45
 -2.3328186e-46
 -8.9354231e-48
  0.0000000e+00
  2.2359024e-50
  1.6609365e-51
  6.3619052e-53
  0.0000000e+00
 -1.5919350e-55
 -1.1829734e-56
 -5.0789943e-58
  0.0000000e+00
  2.1957034e-56
  5.7321450e-55
  7.7164387e-54
  3.8945501e-64
 -3.0837502e-51
 -8.0509111e-50
 -1.0837892e-48
  0.0000000e+00
  4.3311888e-46
  1.1307666e-44
  1.5222037e-43
  0.0000000e+00
 -6.0832413e-41
 -1.5881843e-39
 -2.1379655e-38
  0.0000000e+00
  8.5440341e-36
  2.2306365e-34
  3.0028153e-33
  1.5154651e-43
 -1.2000267e-30
 -3.1329736e-29
 -4.2175142e-28
 -2.1287027e-38
  1.6854615e-25
  4.4003241e-24
  5.9235830e-23
  0.0000000e+00
 -2.3672643e-20
 -6.1803433e-19
 -8.3197908e-18
  0.0000000e+00
  3.3248701e-15
  8.6804157e-14
  1.1685313e-12
  0.0000000e+00
 -4.6698466e-10
 -1.2191817e-08
 -1.6412255e-07
 -8.2836515e-18
 -8.1286071e-05
  2.3651497e-06
  9.0592616e-08
  1.1449175e-20
 -2.2668904e-10
 -1.6839559e-11
 -6.4500766e-13
  0.0000000e+00
  1.6139965e-15
  1.1989547e-16
  4.5923708e-18
  0.0000000e+00
 -1.1491446e-20
 -8.5364020e-22
 -3.2697084e-23
  0.0000000e+00
  8.1817601e-26
  6.0778074e-27
  2.3279899e-28
  2.9424093e-41
 -5.8253069e-31
 -4.3273199e-32
 -1.6574986e-33
  0.0000000e+00
  4.1475429e-36
  3.0809956e-37
  1.1801175e-38
  0.0000000e+00
 -2.9529967e-41
 -2.1936288e-42
 -8.4022830e-44
  0.0000000e+00
  2.1024953e-46
  1.5618352e-47
  5.9823164e-49
  7.5547405e-62
 -1.4969493e-51
 -1.1120064e-52
 -4.2593316e-54
 -5.3792391e-67
  1.0657501e-56
  7.7650283e-58
 -1.7471314e-58
  0.0000000e+00
  8.1940462e-56
  2.1392653e-54
  2.8798141e-53
  0.0000000e+00
 -1.1508712e-50
 -3.0046409e-49
 -4.0447565e-48
  0.0000000e+00
  1.6164217e-45
  4.2200783e-44
  5.6809414e-43
  2.8675842e-53
 -2.2702966e-40
 -5.9271843e-39
 -7.9789959e-38
 -4.0268172e-48
  3.1886769e-35
  8.3248489e-34
  1.1206659e-32
  0.0000000e+00
 -4.4785605e-30
 -1.1692417e-28
 -1.5739977e-27
  0.0000000e+00
  6.2902278e-25
  1.6422233e-23
  2.2107113e-22
  0.0000000e+00
 -8.8347508e-20
 -2.3065355e-18
 -3.1049882e-17
 -1.5671195e-27
  1.2408584e-14
  3.2395753e-13
  4.3610180e-12
  0.0000000e+00
 -1.7428105e-09
 -4.5500482e-08
 -6.1251370e-07
 -4.0000000e-05
  8.5312153e-06
  6.3373996e-07
  2.4274218e-08
  0.0000000e+00
 -6.0741145e-11
 -4.5121462e-12
 -1.7282928e-13
 -2.1816889e-26
  4.3246906e-16
  3.2125895e-17
  1.2305220e-18
  1.5524783e-31
 -3.0791236e-21
 -2.2873220e-22
 -8.7611572e-24
  0.0000000e+00
  2.1922960e-26
  1.6285436e-27
  6.2378301e-29
  0.0000000e+00
 -1.5608863e-31
 -1.1595019e-32
 -4.4412540e-34
  0.0000000e+00
  1.1113308e-36
  8.2555028e-38
  3.1621152e-39
  3.9984560e-52
 -7.9125307e-42
 -5.8778108e-43
 -2.2513850e-44
 -2.8425858e-57
  5.6336191e-47
  4.1849249e-48
  1.6029568e-49
  0.0000000e+00
 -4.0110636e-52
 -2.9796122e-53
 -1.1412845e-54
  0.0000000e+00
  2.8558252e-57
  2.1214452e-58
  8.1257971e-60
  0.0000000e+00
 -2.0333105e-62
 -1.5104414e-63
 -5.7854620e-65
 -7.3096531e-78
  1.4476906e-67
  1.0754147e-68
  4.1191738e-70
  5.2078458e-83
 -1.0307369e-72
 -7.6568129e-74
 -2.9327983e-75
  0.0000000e+00
  7.3387132e-78
  5.4515513e-79
  2.0881143e-80
  0.0000000e+00
 -5.2250675e-83
 -3.8811882e-84
 -1.4536565e-85
  1.4802875e-97
 -1.3205688e-84
 -3.4486478e-83
 -4.6424689e-82
 -2.3428649e-92
  1.8552878e-79
  4.8436987e-78
  6.5204404e-77
  0.0000000e+00
 -2.6057888e-74
 -6.8030717e-73
 -9.1580889e-72
  0.0000000e+00
  3.6598824e-69
  9.5550503e-68
  1.2862719e-66
  0.0000000e+00
 -5.1403781e-64
 -1.3420259e-62
 -1.8065946e-61
 -9.1172577e-72
  7.2197638e-59
  1.8849023e-57
  2.5373983e-56
  1.2808334e-66
 -1.0140303e-53
 -2.6473829e-52
 -3.5638266e-51
  0.0000000e+00
  1.4242258e-48
  3.7183022e-47
  5.0054658e-46
  0.0000000e+00
 -2.0003536e-43
 -5.2224299e-42
 -7.0302768e-41
  0.0000000e+00
  2.8095367e-38
  7.3350072e-37
  9.8741643e-36
  0.0000000e+00
 -3.9460504e-33
 -1.0302164e-31
 -1.3868461e-30
  0.0000000e+00
  5.5423067e-28
  1.4469596e-26
  1.9478531e-25
 -9.8313908e-36
 -7.7842807e-23
 -2.0322837e-21
 -2.7357987e-20
  1.3808385e-30
  1.0933178e-17
  2.8543831e-16
  3.8424840e-15
  0.0000000e+00
 -1.5355867e-12
 -4.0090381e-11
 -5.3968456e-10
  0.0000000e+00
  2.1567622e-07
  5.6307742e-06
 -2.8887725e-05
  2.5000000e-03
  1.0527218e-02
  1.9596504e-02
  2.9712459e-02
  4.0900000e-02
  5.3212649e-02
  6.6431561e-02
  8.0637803e-02
  9.5620000e-02
  1.1130992e-01
  1.2747901e-01
  1.4401635e-01
  1.6072000e-01
  1.7731252e-01
  1.9336200e-01
  2.0865821e-01
  2.2274000e-01
  2.3533241e-01
  2.4626354e-01
  2.5533000e-01
  2.6222000e-01
  2.6696548e-01
  2.6953012e-01
  2.6937681e-01
  2.6700000e-01
  2.6205529e-01
  2.5480465e-01
  2.4509817e-01
  2.3362000e-01
  2.2056602e-01
  2.0631391e-01
  1.9120893e-01
  1.7554000e-01
  1.5952026e-01
  1.4349886e-01
  1.2754626e-01
  1.1210000e-01
  9.7147595e-02
  8.2887305e-02
  6.9519145e-02
  5.6960000e-02
  4.5642109e-02
  3.5310399e-02
  2.6198274e-02
  1.8200000e-02
  1.1148232e-02
  5.0313098e-03
  4.9413849e-04
  0.0000000e+00
  7.4267734e-07
  5.5169668e-08
  2.1131704e-09
  0.0000000e+00
 -5.2877662e-12
 -3.9280087e-13
 -1.5045499e-14
  1.9002164e-27
  3.7648209e-17
  2.7966912e-18
  1.0712200e-19
 -1.3529294e-32
 -2.6805036e-22
 -1.9912078e-23
 -7.6269473e-25
  9.6326818e-38
  1.9084838e-27
  1.4177362e-28
  5.4600082e-30
  0.0000000e+00
 -1.1891008e-29
 -3.1009114e-28
 -4.1743394e-27
  0.0000000e+00
  1.6682074e-24
  4.3552779e-23
  5.8629432e-22
 -2.9592008e-32
 -2.3430306e-19
 -6.1170750e-18
 -8.2346209e-17
  4.1562567e-27
  3.2908334e-14
  8.5915542e-13
  1.1565690e-11
  0.0000000e+00
 -4.6220413e-09
 -1.2067010e-07
 -1.6244243e-06
  2.0000000e-05
 -1.5064501e-03
 -5.2991436e-03
 -8.5132388e-03
 -1.1200000e-02
 -1.3805500e-02
 -1.6850526e-02
 -2.0707220e-02
 -2.6260000e-02
 -3.3634629e-02
 -4.4241419e-02
 -5.9138907e-02
 -7.8480000e-02
 -1.0153263e-01
 -1.2651816e-01
 -1.5098317e-01
 -1.7200000e-01
 -1.8384078e-01
 -1.8254683e-01
 -1.6113990e-01
 -1.1722000e-01
 -4.6640082e-02
  5.2582557e-02
  1.8118960e-01
  3.3836000e-01
  5.1312346e-01
  6.9395327e-01
  8.6776699e-01
  1.0148600e+00
  1.1207004e+00
  1.1635163e+00
  1.1424803e+00
  1.0604000e+00
  9.2526310e-01
  7.5214504e-01
  5.5675967e-01
  3.6120000e-01
  1.8070388e-01
  2.2279207e-02
 -1.0470208e-01
 -1.9982000e-01
 -2.6096435e-01
 -2.9172304e-01
 -2.9631235e-01
 -2.7974000e-01
 -2.5014056e-01
 -2.1161883e-01
 -1.7047054e-01
 -1.3094000e-01
 -9.6577546e-02
 -6.9395499e-02
 -4.8452947e-02
 -3.3020000e-02
 -2.2189174e-02
 -1.4855949e-02
 -1.0002391e-02
 -6.5000000e-03
 -3.5223294e-03
 -7.9882119e-04
  4.4180765e-05
  0.0000000e+00
  7.3208850e-08
  5.4383077e-09
  2.0830416e-10
 -2.6308398e-23
 -5.2123750e-13
 -3.8720045e-14
 -1.4830985e-15
  1.8731238e-28
  3.7111433e-18
  2.7568169e-19
  1.0559469e-20
  0.0000000e+00
 -2.6422859e-23
 -1.9628178e-24
 -7.5182048e-26
  0.0000000e+00
  1.8812732e-28
  1.3975008e-29
  5.3528642e-31
 -6.7605604e-44
 -1.3394421e-33
 -9.9500242e-35
 -3.8111698e-36
  4.8134312e-49
  9.5366538e-39
  7.0842880e-40
  2.7135034e-41
 -3.4271005e-54
 -6.7899736e-44
 -5.0439211e-45
 -1.9319866e-46
  0.0000000e+00
  7.7988252e-49
  7.7753654e-48
  1.0418755e-46
  0.0000000e+00
 -4.1636323e-44
 -1.0870217e-42
 -1.4633157e-41
  7.3857869e-52
  5.8479049e-39
  1.5267437e-37
  2.0552561e-36
 -1.0373485e-46
 -8.2134993e-34
 -2.1443421e-32
 -2.8866483e-31
  0.0000000e+00
  1.1536024e-28
  3.0117713e-27
  4.0543553e-26
  0.0000000e+00
 -1.6202577e-23
 -4.2300931e-22
 -5.6944231e-21
  0.0000000e+00
  2.2756843e-18
  5.9412503e-17
  7.9979311e-16
 -4.0367924e-26
 -3.1962441e-13
 -8.3446049e-12
 -1.1233254e-10
  5.6697556e-21
  4.4891887e-08
  1.1720164e-06
  1.5777330e-05
  6.6000000e-04
  6.0946174e-06
 -2.0543757e-06
 -7.8688999e-08
  0.0000000e+00
  1.9690273e-10
  1.4626888e-11
  5.6025546e-13
 -7.0759144e-26
 -1.4019219e-15
 -1.0414154e-16
 -3.9889461e-18
  5.0379591e-31
  9.9815018e-21
  7.4147426e-22
  2.8400778e-23
 -3.5869615e-36
 -7.1066996e-26
 -5.2792005e-27
 -2.0220985e-28
  2.5538700e-41
  5.0598778e-31
  3.7587222e-32
  1.4397079e-33
  0.0000000e+00
 -3.6025673e-36
 -2.6761614e-37
 -1.0250533e-38
  1.2946218e-51
  2.5649811e-41
  1.9053921e-42
  7.2982465e-44
  0.0000000e+00
 -1.8262319e-46
 -1.3562642e-47
 -4.7248150e-49
  0.0000000e+00
 -1.8839107e-47
 -4.9187645e-46
 -6.6214930e-45
  0.0000000e+00
  2.6461728e-42
  6.9085045e-41
  9.3000194e-40
  0.0000000e+00
 -3.7166027e-37
 -9.7031328e-36
 -1.3062063e-34
  6.5928096e-45
  5.2200428e-32
  1.3628244e-30
  1.8345929e-29
 -9.2597330e-40
 -7.3316545e-27
 -1.9141141e-25
 -2.5767224e-24
  1.3005480e-34
  1.0297455e-21
  2.6884116e-20
  3.6190582e-19
  0.0000000e+00
 -1.4462982e-16
 -3.7759278e-15
 -5.0830396e-14
  2.5655604e-24
  2.0313547e-11
  5.3033662e-10
  7.1392308e-09
  0.0000000e+00
 -2.8530784e-06
  5.8551316e-04
  3.1563433e-03
  5.9200000e-03
  8.8180622e-03
  1.2122939e-02
  1.5753491e-02
  1.9720000e-02
  2.4006701e-02
  2.8811495e-02
  3.3990354e-02
  3.9620000e-02
  4.5769589e-02
  5.2479862e-02
  5.9801048e-02
  6.7600000e-02
  7.5979179e-02
  8.5064333e-02
  9.4822753e-02
  1.0510000e-01
  1.1617370e-01
  1.2784693e-01
  1.4010177e-01
  1.5288000e-01
  1.6642047e-01
  1.8052254e-01
  1.9490199e-01
  2.1000000e-01
  2.2530943e-01
  2.4101188e-01
  2.5692906e-01
  2.7304000e-01
  2.8920002e-01
  3.0537860e-01
  3.2129977e-01
  3.3706000e-01
  3.5244183e-01
  3.6735942e-01
  3.8163249e-01
  3.9520000e-01
  4.0787624e-01
  4.1954481e-01
  4.3009998e-01
  4.3954000e-01
  4.4766403e-01
  4.5449096e-01
  4.5995014e-01
  4.6392000e-01
  4.6653614e-01
  4.6787558e-01
  4.7288225e-01
  4.7812000e-01
  4.8194597e-01
  4.8422018e-01
  4.8509392e-01
  4.8392000e-01
  4.8132092e-01
  4.7735714e-01
  4.7195237e-01
  4.6520000e-01
  4.5705396e-01
  4.4795449e-01
  4.3770255e-01
  4.2638000e-01
  4.1416907e-01
  4.0107027e-01
  3.8717297e-01
  3.7262000e-01
  3.5757828e-01
  3.4178846e-01
  3.2570592e-01
  3.0922000e-01
  2.9244355e-01
  2.7549437e-01
  2.5849081e-01
  2.4148000e-01
  2.2456186e-01
  2.0781165e-01
  1.9142887e-01
  1.7540000e-01
  1.6000804e-01
  1.4506012e-01
  1.3082489e-01
  1.1704000e-01
  1.0400653e-01
  9.1459722e-02
  7.9443162e-02
  6.8160000e-02
  5.7431478e-02
  4.7210971e-02
  3.7522250e-02
  2.8560000e-02
  1.9885191e-02
  1.1873453e-02
  4.3923581e-03
 -4.0000000e-05
 -4.8199413e-05
  9.4657894e-06
  3.6256927e-07
 -4.5791774e-20
 -9.0725363e-10
 -6.7395191e-11
 -2.5814461e-12
  0.0000000e+00
  6.4595280e-15
  4.7984501e-16
  1.8379561e-17
  0.0000000e+00
 -4.5991001e-20
 -3.4164341e-21
 -1.3086009e-22
  0.0000000e+00
  3.2744995e-25
  2.4324567e-26
  9.3170684e-28
  0.0000000e+00
 -2.3314011e-30
 -1.7318776e-31
 -6.6336317e-33
  0.0000000e+00
  1.6599273e-35
  1.2330744e-36
  4.7230596e-38
  0.0000000e+00
 -1.1818467e-40
 -8.7793293e-42
 -3.3627571e-43
  4.2470950e-56
  8.4145951e-46
  6.2507685e-47
  2.3942394e-48
 -3.0238765e-61
 -5.9910824e-51
 -4.4504660e-52
 -1.7046674e-53
  2.1529609e-66
  4.2656312e-56
  3.1839053e-57
  3.2640913e-58
  0.0000000e+00
 -8.1940841e-56
 -2.1392653e-54
 -2.8798141e-53
  0.0000000e+00
  1.1508712e-50
  3.0046409e-49
  4.0447565e-48
 -2.0415082e-58
 -1.6164217e-45
 -4.2200783e-44
 -5.6809414e-43
  0.0000000e+00
  2.2702966e-40
  5.9271843e-39
  7.9789959e-38
  0.0000000e+00
 -3.1886769e-35
 -8.3248489e-34
 -1.1206659e-32
  0.0000000e+00
  4.4785605e-30
  1.1692417e-28
  1.5739977e-27
  0.0000000e+00
 -6.2902278e-25
 -1.6422233e-23
 -2.2107113e-22
  1.1158114e-32
  8.8347508e-20
  2.3065355e-18
  3.1049882e-17
 -1.5671794e-27
 -1.2408584e-14
 -3.2395753e-13
 -4.3610180e-12
  2.2011348e-22
  1.7428105e-09
  4.5500482e-08
  6.1251370e-07
  0.0000000e+00
 -2.5406215e-05
 -6.3373996e-07
 -2.4274218e-08
  3.0657852e-21
  6.0741145e-11
  4.5121462e-12
  1.7282928e-13
  0.0000000e+00
 -4.3246906e-16
 -3.2125895e-17
 -1.2305220e-18
  0.0000000e+00
  3.0791236e-21
  2.2873220e-22
  8.7611572e-24
  0.0000000e+00
 -2.1922960e-26
 -1.6285436e-27
 -6.2378301e-29
  0.0000000e+00
  1.5608863e-31
  1.1595019e-32
  4.4412540e-34
 -5.6092150e-47
 -1.1113308e-36
 -8.2555028e-38
 -3.1621152e-39
  3.9936882e-52
  7.9125307e-42
  5.8778108e-43
  2.2513850e-44
 -2.8434542e-57
 -5.6336191e-47
 -4.1849249e-48
 -1.6029568e-49
  0.0000000e+00
  4.0110636e-52
  2.9796122e-53
  1.1412845e-54
  0.0000000e+00
 -2.8536479e-57
 -1.5530057e-58
  7.5709026e-58
  0.0000000e+00
 -3.0580623e-55
 -7.9838468e-54
 -1.0747613e-52
  0.0000000e+00
  4.2951099e-50
  1.1213473e-48
  1.5095237e-47
  0.0000000e+00
 -6.0325678e-45
 -1.5749547e-43
 -2.1201562e-42
  0.0000000e+00
  8.4728621e-40
  2.2120553e-38
  2.9778018e-37
 -1.5029846e-47
 -1.1900304e-34
 -3.1068759e-33
 -4.1823822e-32
  2.1109720e-42
  1.6714215e-29
  4.3636694e-28
  5.8742394e-27
 -2.9649024e-37
 -2.3475450e-24
 -6.1288609e-23
 -8.2504868e-22
  0.0000000e+00
  3.2971739e-19
  8.6081077e-18
  1.1587974e-16
  0.0000000e+00
 -4.6309467e-14
 -1.2090259e-12
 -1.6275541e-11
  8.2147468e-22
  6.5042572e-09
  1.6981011e-07
  2.2859323e-06
 -8.0000000e-05
 -2.2859323e-06
 -1.6981011e-07
 -6.5042572e-09
  0.0000000e+00
  1.6275541e-11
  1.2090259e-12
  4.6309467e-14
  0.0000000e+00
 -1.1587974e-16
 -8.6081077e-18
 -3.2971739e-19
  0.0000000e+00
  8.2504868e-22
  6.1288609e-23
  2.3475450e-24
 -2.9649024e-37
 -5.8742394e-27
 -4.3636694e-28
 -1.6714215e-29
  2.1109720e-42
  4.1823822e-32
  3.1068759e-33
  1.1900304e-34
  0.0000000e+00
 -2.9778018e-37
 -2.2120553e-38
 -8.4728621e-40
  0.0000000e+00
  2.1201562e-42
  1.5749547e-43
  6.0325678e-45
 -7.6190125e-58
 -1.5095237e-47
 -1.1213473e-48
 -4.2951099e-50
  0.0000000e+00
  1.0747613e-52
  7.9838468e-54
  3.0580625e-55
  0.0000000e+00
 -7.6521606e-58
 -5.6843953e-59
 -2.1773008e-60
  0.0000000e+00
  5.4482390e-63
  4.0472156e-64
  1.5502099e-65
  0.0000000e+00
 -3.8790754e-68
 -2.8815650e-69
 -1.1037293e-70
  1.3939880e-83
  2.7618513e-73
  2.0516368e-74
  7.8584093e-76
 -9.9250138e-89
 -1.9664023e-78
 -1.4607388e-79
 -5.5950854e-81
  7.0664809e-94
  1.4000494e-83
  1.0391107e-84
  2.7500444e-86
  0.0000000e+00
  4.9297185e-84
  1.2870538e-82
  1.7325930e-81
  0.0000000e+00
 -6.9240282e-79
 -1.8076930e-77
 -2.4334615e-76
  0.0000000e+00
  9.7249361e-74
  2.5389409e-72
  3.4178453e-71
  0.0000000e+00
 -1.3658867e-68
 -3.5659933e-67
 -4.8004321e-66
  0.0000000e+00
  1.9184152e-63
  5.0085089e-62
  6.7423029e-61
  0.0000000e+00
 -2.6944525e-58
 -7.0345510e-57
 -9.4696993e-56
  4.7796373e-66
  3.7844125e-53
  9.8801675e-52
  1.3300382e-50
 -6.7130962e-61
 -5.3152830e-48
 -1.3876893e-46
 -1.8680653e-45
  9.4286778e-56
  7.4654213e-43
  1.9490374e-41
  2.6237350e-40
  0.0000000e+00
 -1.0485334e-37
 -2.7374620e-36
 -3.6850883e-35
  0.0000000e+00
  1.4726861e-32
  3.8448201e-31
  5.1757802e-30
  0.0000000e+00
 -2.0684170e-27
 -5.4001267e-26
 -7.2694868e-25
  0.0000000e+00
  2.9051331e-22
  7.5845859e-21
  1.0210140e-19
  0.0000000e+00
 -4.0803175e-17
 -1.0652703e-15
 -1.4340345e-14
  0.0000000e+00
  5.7308876e-12
  1.4961934e-10
  2.0141302e-09
  0.0000000e+00
 -8.0491462e-07
 -2.6014335e-05
 -1.0101361e-04
  5.8600000e-03
  1.4418119e-02
  2.3950429e-02
  3.4538923e-02
  4.6260000e-02
  5.8979038e-02
  7.2637100e-02
  8.7193368e-02
  1.0250000e-01
  1.1842932e-01
  1.3481797e-01
  1.5142051e-01
  1.6814000e-01
  1.8449091e-01
  2.0027228e-01
  2.1513149e-01
  2.2850000e-01
  2.4043768e-01
  2.5052675e-01
  2.5873155e-01
  2.6458000e-01
  2.6835555e-01
  2.6988023e-01
  2.6853564e-01
  2.6500000e-01
  2.5910912e-01
  2.5080846e-01
  2.4018014e-01
  2.2810000e-01
  2.1434820e-01
  1.9967572e-01
  1.8432215e-01
  1.6842000e-01
  1.5240008e-01
  1.3638682e-01
  1.2063078e-01
  1.0538000e-01
  9.0703691e-02
  7.6837690e-02
  6.3803256e-02
  5.1820000e-02
  4.0896258e-02
  3.1109697e-02
  2.2526218e-02
  1.4920000e-02
  8.2986691e-03
  2.5562553e-03
 -2.5472944e-05
  0.0000000e+00
 -1.9899979e-07
 -1.4782668e-08
 -5.6622231e-10
  0.0000000e+00
  1.4168527e-12
  1.0525068e-13
  4.0314293e-15
  0.0000000e+00
 -1.0087807e-17
 -7.4937114e-19
 -2.8703253e-20
  0.0000000e+00
  7.1823877e-23
  5.3354252e-24
  2.0436344e-25
  0.0000000e+00
 -5.1137699e-28
 -3.7995774e-29
 -1.5659605e-30
  0.0000000e+00
  4.4330775e-29
  1.1572724e-27
  1.5578847e-26
 -7.8631047e-37
 -6.2258347e-24
 -1.6254119e-22
 -2.1880802e-21
  1.1043888e-31
  8.7443093e-19
  2.2829235e-17
  3.0732024e-16
 -1.5511361e-26
 -1.2281557e-13
 -3.2064117e-12
 -4.3163742e-11
  0.0000000e+00
  1.7249693e-08
  4.5034693e-07
  6.0624339e-06
  1.0000000e-04
 -3.2158789e-03
 -6.8671271e-03
 -9.6965873e-03
 -1.2380000e-02
 -1.5108602e-02
 -1.8486550e-02
 -2.2893256e-02
 -2.9300000e-02
 -3.7818667e-02
 -5.0359271e-02
 -6.7057112e-02
 -8.8420000e-02
 -1.1247674e-01
 -1.3762288e-01
 -1.6091374e-01
 -1.7856000e-01
 -1.8512122e-01
 -1.7593512e-01
 -1.4448692e-01
 -9.0100000e-02
 -5.9964885e-03
  1.0548783e-01
  2.4836751e-01
  4.1438000e-01
  5.9373485e-01
  7.7266840e-01
  9.3742759e-01
  1.0678600e+00
  1.1493262e+00
  1.1617373e+00
  1.1146462e+00
  1.0056600e+00
  8.5255921e-01
  6.6630249e-01
  4.6900008e-01
  2.7856000e-01
  1.0735469e-01
 -3.8549742e-02
 -1.5088621e-01
 -2.3190000e-01
 -2.7801241e-01
 -2.9721861e-01
 -2.9081286e-01
 -2.6792000e-01
 -2.3359004e-01
 -1.9347355e-01
 -1.5245632e-01
 -1.1486000e-01
 -8.3607402e-02
 -5.9348788e-02
 -4.0823735e-02
 -2.7720000e-02
 -1.8541478e-02
 -1.2501719e-02
 -8.3245375e-03
 -5.1400000e-03
 -2.3070457e-03
 -5.5334728e-05
  8.4643186e-06
 -9.9009026e-19
 -1.9616252e-08
 -1.4571902e-09
 -5.5814930e-11
  0.0000000e+00
  1.3966517e-13
  1.0375005e-14
  3.9739506e-16
  0.0000000e+00
 -9.9439786e-19
 -7.3868686e-20
 -2.8294012e-21
  0.0000000e+00
  7.0799836e-24
  5.2593545e-25
  2.0144969e-26
  0.0000000e+00
 -5.0408564e-29
 -3.7445921e-30
 -1.4342956e-31
  0.0000000e+00
  3.5890243e-34
  2.6661009e-35
  1.0211999e-36
  0.0000000e+00
 -2.5553387e-39
 -1.8982293e-40
 -7.2708104e-42
  0.0000000e+00
  1.8193680e-44
  1.3515148e-45
  5.1769994e-47
  0.0000000e+00
 -1.2358852e-48
 -2.8893656e-47
 -3.8882847e-46
  0.0000000e+00
  1.5538887e-43
  4.0568202e-42
  5.4611684e-41
  0.0000000e+00
 -2.1824678e-38
 -5.6978851e-37
 -7.6703202e-36
  0.0000000e+00
  3.0653197e-33
  8.0027936e-32
  1.0773118e-30
 -1.0875023e-40
 -4.3053028e-28
 -1.1240084e-26
 -1.5131060e-25
  1.5274187e-35
  6.0468839e-23
  1.5786922e-21
  2.1251876e-20
  0.0000000e+00
 -8.4929694e-18
 -2.2173048e-16
 -2.9848685e-15
  0.0000000e+00
  1.1928545e-12
  3.1142490e-11
  4.1923075e-10
  0.0000000e+00
 -1.6753880e-07
 -4.3740249e-06
 -5.8881798e-05
  7.0000000e-04
  7.4102374e-06
  5.5046830e-07
  2.1084654e-08
  0.0000000e+00
 -5.2759928e-11
 -3.9192628e-12
 -1.5012000e-13
  0.0000000e+00
  3.7564384e-16
  2.7904642e-17
  1.0688349e-18
  0.0000000e+00
 -2.6745353e-21
 -1.9867743e-22
 -7.6099656e-24
  1.9222469e-36
  1.9042344e-26
  1.4145575e-27
  5.4181967e-29
 -1.3686148e-41
 -1.3557902e-31
 -1.0071466e-32
 -3.8576857e-34
  0.0000000e+00
  9.6530500e-37
  7.1707528e-38
  2.7466221e-39
  0.0000000e+00
 -6.8728463e-42
 -5.1054828e-43
 -1.9555593e-44
  0.0000000e+00
  4.8933272e-47
  3.6219675e-48
 -3.6711160e-50
  0.0000000e+00
  7.0313007e-47
  1.8357083e-45
  2.4711748e-44
  0.0000000e+00
 -9.8756514e-42
 -2.5782890e-40
 -3.4708145e-39
  0.0000000e+00
  1.3870550e-36
  3.6212585e-35
  4.8748284e-34
  0.0000000e+00
 -1.9481465e-31
 -5.0861299e-30
 -6.8467939e-29
  0.0000000e+00
  2.7362107e-26
  7.1435712e-25
  9.6164590e-24
 -9.7074225e-34
 -3.8430626e-21
 -1.0033289e-19
 -1.3506509e-18
  0.0000000e+00
  5.3976584e-16
  1.4091955e-14
  1.8970162e-13
  0.0000000e+00
 -7.5811191e-11
 -1.9792432e-09
 -2.6643972e-08
  0.0000000e+00
  1.4085333e-05
  1.6929887e-03
  4.3303242e-03
  7.2000000e-03
  1.0244252e-02
  1.3690921e-02
  1.7479749e-02
  2.1580000e-02
  2.6111489e-02
  3.1046781e-02
  3.6454740e-02
  4.2260000e-02
  4.8739378e-02
  5.5639281e-02
  6.3143418e-02
  7.1260000e-02
  7.9926934e-02
  8.9310026e-02
  9.9322795e-02
  1.0998000e-01
  1.2129610e-01
  1.3319985e-01
  1.4572282e-01
  1.5880000e-01
  1.7264335e-01
  1.8682367e-01
  2.0156244e-01
  2.1680000e-01
  2.3221965e-01
  2.4811806e-01
  2.6409732e-01
  2.8020000e-01
  2.9640185e-01
  3.1248703e-01
  3.2834499e-01
  3.4396000e-01
  3.5912872e-01
  3.7377354e-01
  3.8776876e-01
  4.0088000e-01
  4.1320592e-01
  4.2439199e-01
  4.3442811e-01
  4.4330000e-01
  4.5087736e-01
  4.5709456e-01
  4.6188070e-01
  4.6526000e-01
  4.6720486e-01
  4.6943072e-01
  4.7537832e-01
  4.8000000e-01
  4.8327001e-01
  4.8476556e-01
  4.8456625e-01
  4.8296000e-01
  4.7974994e-01
  4.7509489e-01
  4.6907319e-01
  4.6176000e-01
  4.5309765e-01
  4.4355278e-01
  4.3280207e-01
  4.2110000e-01
  4.0843251e-01
  3.9500239e-01
  3.8075853e-01
  3.6602000e-01
  3.5058723e-01
  3.3467718e-01
  3.1845122e-01
  3.0178000e-01
  2.8492150e-01
  2.6791374e-01
  2.5089654e-01
  2.3396000e-01
  2.1707285e-01
  2.0048075e-01
  1.8430233e-01
  1.6852000e-01
  1.5331927e-01
  1.3861306e-01
  1.2465738e-01
  1.1120000e-01
  9.8334381e-02
  8.5997320e-02
  7.4380379e-02
  6.3320000e-02
  5.2819248e-02
  4.2811991e-02
  3.3490760e-02
  2.4640000e-02
  1.6297042e-02
  8.4855166e-03
  1.1624320e-03
 -8.0000000e-05
 -6.7893583e-05
 -2.5363506e-06
 -9.7150144e-08
  0.0000000e+00
  2.4309788e-10
  1.8058487e-11
  6.9169641e-13
  0.0000000e+00
 -1.7308253e-15
 -1.2857408e-16
 -4.9247886e-18
  0.0000000e+00
  1.2323252e-20
  9.1543077e-22
  3.5063855e-23
  0.0000000e+00
 -8.7739950e-26
 -6.5177482e-27
 -2.4965010e-28
  0.0000000e+00
  6.2469705e-31
  4.6405521e-32
  1.7774763e-33
  0.0000000e+00
 -4.4477619e-36
 -3.3040128e-37
 -1.2655400e-38
  0.0000000e+00
  3.1667487e-41
  2.3524142e-42
  9.0104805e-44
  0.0000000e+00
 -2.2546839e-46
 -1.6748884e-47
 -6.4153451e-49
  0.0000000e+00
  1.6053057e-51
  1.1924988e-52
  4.5676424e-54
 -1.1537688e-66
 -1.1431745e-56
 -9.0588759e-58
 -7.9773708e-58
  0.0000000e+00
  3.0580633e-55
  7.9838469e-54
  1.0747613e-52
  0.0000000e+00
 -4.2951099e-50
 -1.1213473e-48
 -1.5095237e-47
  0.0000000e+00
  6.0325678e-45
  1.5749547e-43
  2.1201562e-42
  0.0000000e+00
 -8.4728621e-40
 -2.2120553e-38
 -2.9778018e-37
  0.0000000e+00
  1.1900304e-34
  3.1068759e-33
  4.1823822e-32
  0.0000000e+00
 -1.6714215e-29
 -4.3636694e-28
 -5.8742394e-27
  0.0000000e+00
  2.3475450e-24
  6.1288609e-23
  8.2504868e-22
  0.0000000e+00
 -3.2971739e-19
 -8.6081077e-18
 -1.1587974e-16
  1.1697586e-26
  4.6309467e-14
  1.2090259e-12
  1.6275541e-11
 -1.6429494e-21
 -6.5042572e-09
 -1.6981011e-07
 -2.2859323e-06
 -8.0000000e-05
  2.2859323e-06
  1.6981011e-07
  6.5042572e-09
  0.0000000e+00
 -1.6275541e-11
 -1.2090259e-12
 -4.6309467e-14
  0.0000000e+00
  1.1587974e-16
  8.6081077e-18
  3.2971739e-19
  0.0000000e+00
 -8.2504868e-22
 -6.1288609e-23
 -2.3475450e-24
  0.0000000e+00
  5.8742394e-27
  4.3636694e-28
  1.6714215e-29
  0.0000000e+00
 -4.1823822e-32
 -3.1068759e-33
 -1.1900304e-34
  0.0000000e+00
  2.9778018e-37
  2.2120553e-38
  8.4728621e-40
  0.0000000e+00
 -2.1201562e-42
 -1.5749547e-43
 -6.0325678e-45
  1.5238025e-57
  1.5095237e-47
  1.1213473e-48
  4.2951099e-50
  0.0000000e+00
 -1.0747613e-52
 -7.9838468e-54
 -3.0580623e-55
  0.0000000e+00
  7.5709026e-58
 -1.5530057e-58
 -2.8536479e-57
  0.0000000e+00
  1.1412845e-54
  2.9796122e-53
  4.0110636e-52
  0.0000000e+00
 -1.6029568e-49
 -4.1849249e-48
 -5.6336191e-47
  0.0000000e+00
  2.2513850e-44
  5.8778108e-43
  7.9125307e-42
  0.0000000e+00
 -3.1621152e-39
 -8.2555028e-38
 -1.1113308e-36
  0.0000000e+00
  4.4412540e-34
  1.1595019e-32
  1.5608863e-31
  0.0000000e+00
 -6.2378301e-29
 -1.6285436e-27
 -2.1922960e-26
  2.2130333e-36
  8.7611572e-24
  2.2873220e-22
  3.0791236e-21
  0.0000000e+00
 -1.2305220e-18
 -3.2125895e-17
 -4.3246906e-16
  0.0000000e+00
  1.7282928e-13
  4.5121462e-12
  6.0741145e-11
  0.0000000e+00
 -2.4274218e-08
 -6.3373996e-07
 -2.5406215e-05
  0.0000000e+00
  6.1251370e-07
  4.5500482e-08
  1.7428105e-09
  0.0000000e+00
 -4.3610180e-12
 -3.2395753e-13
 -1.2408584e-14
  0.0000000e+00
  3.1049882e-17
  2.3065355e-18
  8.8347508e-20
  0.0000000e+00
 -2.2107113e-22
 -1.6422233e-23
 -6.2902278e-25
  0.0000000e+00
  1.5739977e-27
  1.1692417e-28
  4.4785605e-30
  0.0000000e+00
 -1.1206659e-32
 -8.3248489e-34
 -3.1886769e-35
  0.0000000e+00
  7.9789959e-38
  5.9271843e-39
  2.2702966e-40
  0.0000000e+00
 -5.6809414e-43
 -4.2200783e-44
 -1.6164217e-45
  0.0000000e+00
  4.0447565e-48
  3.0046409e-49
  1.1508712e-50
  0.0000000e+00
 -2.8798141e-53
 -2.1392653e-54
 -8.1940538e-56
  0.0000000e+00
  2.0503903e-58
  1.5231291e-59
  5.8340599e-61
  0.0000000e+00
 -1.4598512e-63
 -1.0844482e-64
 -4.1537749e-66
  0.0000000e+00
  1.0393951e-68
  7.7211300e-70
  2.9574338e-71
  0.0000000e+00
 -7.4003583e-74
 -5.4973443e-75
 -2.1056544e-76
  0.0000000e+00
  5.2689590e-79
  3.9140378e-80
  1.4991986e-81
  0.0000000e+00
 -3.7514304e-84
 -2.7867441e-85
 -1.0674099e-86
  0.0000000e+00
  2.6709697e-89
  1.9841256e-90
  7.5998201e-92
  0.0000000e+00
 -1.9016957e-94
 -1.4126716e-95
 -5.4109732e-97
  0.0000000e+00
  1.3539827e-99
 1.0058039e-100
 3.8525427e-102
  0.0000000e+00
-9.6401808e-105
-7.1611929e-106
-2.7429604e-107
  0.0000000e+00
 6.8636835e-110
 5.0986763e-111
 1.9529522e-112
  0.0000000e+00
-4.8868535e-115
-3.6301913e-116
-1.3904766e-117
  0.0000000e+00
 3.4793763e-120
 2.5846491e-121
 9.9000126e-123
  0.0000000e+00
-2.4772707e-125
-1.8402366e-126
-7.0486804e-128
 1.7804685e-140
 1.7637846e-130
 1.3102246e-131
 5.0185689e-133
  0.0000000e+00
-1.2557917e-135
-9.3286286e-137
-3.5731559e-138
  0.0000000e+00
 8.9410739e-141
 6.6418625e-142
 2.5440406e-143
  0.0000000e+00
-6.3659285e-146
-4.7289198e-147
-1.8113239e-148
  0.0000000e+00
 4.5324597e-151
 3.3672634e-152
 1.3345861e-153
  0.0000000e+00