Patient Number 057D2C2 Lead Number 1 Time Step .0016 Data Points 3751
0.0000000e+00
 0.0000000e+00
 0.0000000e+00
 0.0000000e+00
 0.0000000e+00
 0.0000000e+00
 0.0000000e+00
 0.0000000e+00
 0.0000000e+00
 0.0000000e+00
 0.0000000e+00
 0.0000000e+00
 0.0000000e+00
 0.0000000e+00
 0.0000000e+00
 0.0000000e+00
 0.0000000e+00
 0.0000000e+00
 0.0000000e+00
 0.0000000e+00
 0.0000000e+00
 0.0000000e+00
 0.0000000e+00
 0.0000000e+00
 0.0000000e+00
 0.0000000e+00
 0.0000000e+00
 0.0000000e+00
 0.0000000e+00
 0.0000000e+00
 0.0000000e+00
-6.0000000e-05
 7.0000000e-04
 6.7800000e-03
 1.4440000e-02
 2.2800000e-02
 3.2100000e-02
 4.2240000e-02
 5.3200000e-02
 6.4940000e-02
 7.7400000e-02
 9.0540000e-02
 1.0426000e-01
 1.1842000e-01
 1.3298000e-01
 1.4770000e-01
 1.6258000e-01
 1.7730000e-01
 1.9162000e-01
 2.0532000e-01
 2.1830000e-01
 2.2990000e-01
 2.4040000e-01
 2.4952000e-01
 2.5704000e-01
 2.6290000e-01
 2.6696000e-01
 2.6928000e-01
 2.6968000e-01
 2.6796000e-01
 2.6450000e-01
 2.5910000e-01
 2.5182000e-01
 2.4270000e-01
 2.3224000e-01
 2.2060000e-01
 2.0794000e-01
 1.9460000e-01
 1.8084000e-01
 1.6664000e-01
 1.5240000e-01
 1.3816000e-01
 1.2408000e-01
 1.1040000e-01
 9.7160000e-02
 8.4400000e-02
 7.2420000e-02
 6.1040000e-02
 5.0560000e-02
 4.0920000e-02
 3.2100000e-02
 2.4340000e-02
 1.7380000e-02
 1.1140000e-02
 5.6600000e-03
 9.0000000e-04
-4.0000000e-05
 0.0000000e+00
 0.0000000e+00
 0.0000000e+00
 0.0000000e+00
 0.0000000e+00
 0.0000000e+00
 0.0000000e+00
 0.0000000e+00
 0.0000000e+00
 0.0000000e+00
 0.0000000e+00
 0.0000000e+00
 0.0000000e+00
 0.0000000e+00
 0.0000000e+00
 0.0000000e+00
 0.0000000e+00
 0.0000000e+00
 0.0000000e+00
 0.0000000e+00
 0.0000000e+00
 0.0000000e+00
 0.0000000e+00
 0.0000000e+00
 0.0000000e+00
 0.0000000e+00
 0.0000000e+00
 0.0000000e+00
 0.0000000e+00
 0.0000000e+00
-7.4000000e-04
-5.3000000e-03
-8.2000000e-03
-1.0600000e-02
-1.2940000e-02
-1.5440000e-02
-1.8480000e-02
-2.2360000e-02
-2.7700000e-02
-3.4700000e-02
-4.4200000e-02
-5.7240000e-02
-7.3840000e-02
-9.3500000e-02
-1.1530000e-01
-1.3762000e-01
-1.5858000e-01
-1.7528000e-01
-1.8500000e-01
-1.8202000e-01
-1.6480000e-01
-1.2920000e-01
-7.3060000e-02
 3.9000000e-03
 1.0634000e-01
 2.3088000e-01
 3.7592000e-01
 5.3334000e-01
 6.9420000e-01
 8.4858000e-01
 9.8542000e-01
 1.0914200e+00
 1.1519200e+00
 1.1642000e+00
 1.1210800e+00
 1.0346200e+00
 9.0798000e-01
 7.5156000e-01
 5.7880000e-01
 4.0420000e-01
 2.3852000e-01
 8.9480000e-02
-3.7640000e-02
-1.4120000e-01
-2.1586000e-01
-2.6602000e-01
-2.9194000e-01
-2.9660000e-01
-2.8530000e-01
-2.6096000e-01
-2.2938000e-01
-1.9346000e-01
-1.5698000e-01
-1.2250000e-01
-9.3380000e-02
-6.9340000e-02
-5.0460000e-02
-3.6060000e-02
-2.5200000e-02
-1.7800000e-02
-1.2480000e-02
-8.7200000e-03
-5.8200000e-03
-3.2000000e-03
-8.6000000e-04
 8.0000000e-05
 0.0000000e+00
 0.0000000e+00
 0.0000000e+00
 0.0000000e+00
 0.0000000e+00
 0.0000000e+00
 0.0000000e+00
 0.0000000e+00
 0.0000000e+00
 0.0000000e+00
 0.0000000e+00
 0.0000000e+00
 0.0000000e+00
 0.0000000e+00
 0.0000000e+00
 0.0000000e+00
 0.0000000e+00
 0.0000000e+00
 0.0000000e+00
 0.0000000e+00
 0.0000000e+00
 0.0000000e+00
 0.0000000e+00
 0.0000000e+00
 0.0000000e+00
 0.0000000e+00
 0.0000000e+00
 0.0000000e+00
 0.0000000e+00
 0.0000000e+00
 0.0000000e+00
 0.0000000e+00
 0.0000000e+00
 0.0000000e+00
 0.0000000e+00
 0.0000000e+00
 0.0000000e+00
 0.0000000e+00
 0.0000000e+00
 0.0000000e+00
 0.0000000e+00
 0.0000000e+00
 0.0000000e+00
 0.0000000e+00
 0.0000000e+00
 0.0000000e+00
 0.0000000e+00
 0.0000000e+00
 0.0000000e+00
 2.8800000e-03
 5.2800000e-03
 7.8400000e-03
 1.0600000e-02
 1.3700000e-02
 1.7040000e-02
 2.0640000e-02
 2.4540000e-02
 2.8800000e-02
 3.3400000e-02
 3.8340000e-02
 4.3620000e-02
 4.9480000e-02
 5.5600000e-02
 6.2320000e-02
 6.9420000e-02
 7.6940000e-02
 8.5080000e-02
 9.3700000e-02
 1.0278000e-01
 1.1244000e-01
 1.2260000e-01
 1.3322000e-01
 1.4430000e-01
 1.5584000e-01
 1.6796000e-01
 1.8052000e-01
 1.9328000e-01
 2.0660000e-01
 2.2020000e-01
 2.3396000e-01
 2.4812000e-01
 2.6230000e-01
 2.7660000e-01
 2.9100000e-01
 3.0538000e-01
 3.1954000e-01
 3.3358000e-01
 3.4740000e-01
 3.6078000e-01
 3.7378000e-01
 3.8626000e-01
 3.9804000e-01
 4.0930000e-01
 4.1952000e-01
 4.2900000e-01
 4.3756000e-01
 4.4506000e-01
 4.5170000e-01
 4.5706000e-01
 4.6144000e-01
 4.6464000e-01
 4.6670000e-01
 4.6760000e-01
 4.7212000e-01
 4.7704000e-01
 4.8080000e-01
 4.8344000e-01
 4.8480000e-01
 4.8472000e-01
 4.8352000e-01
 4.8096000e-01
 4.7732000e-01
 4.7270000e-01
 4.6676000e-01
 4.5994000e-01
 4.5210000e-01
 4.4352000e-01
 4.3410000e-01
 4.2374000e-01
 4.1276000e-01
 4.0108000e-01
 3.8874000e-01
 3.7590000e-01
 3.6266000e-01
 3.4884000e-01
 3.3468000e-01
 3.2026000e-01
 3.0550000e-01
 2.9056000e-01
 2.7550000e-01
 2.6038000e-01
 2.4524000e-01
 2.3020000e-01
 2.1522000e-01
 2.0048000e-01
 1.8608000e-01
 1.7196000e-01
 1.5830000e-01
 1.4508000e-01
 1.3236000e-01
 1.2004000e-01
 1.0832000e-01
 9.6900000e-02
 8.6020000e-02
 7.5640000e-02
 6.5720000e-02
 5.6280000e-02
 4.7200000e-02
 3.8580000e-02
 3.0520000e-02
 2.2680000e-02
 1.5400000e-02
 8.5000000e-03
 2.0800000e-03
-1.6000000e-04
 0.0000000e+00
 0.0000000e+00
 0.0000000e+00
 0.0000000e+00
 0.0000000e+00
 0.0000000e+00
 0.0000000e+00
 0.0000000e+00
 0.0000000e+00
 0.0000000e+00
 0.0000000e+00
 0.0000000e+00
 0.0000000e+00
 0.0000000e+00
 0.0000000e+00
 0.0000000e+00
 0.0000000e+00
 0.0000000e+00
 0.0000000e+00
 0.0000000e+00
 0.0000000e+00
 0.0000000e+00
 0.0000000e+00
 0.0000000e+00
 0.0000000e+00
 0.0000000e+00
 0.0000000e+00
 0.0000000e+00
 0.0000000e+00
 0.0000000e+00
 0.0000000e+00
-2.0000000e-05
 3.1000000e-03
 1.0520000e-02
 1.8560000e-02
 2.7360000e-02
 3.7060000e-02
 4.7600000e-02
 5.8980000e-02
 7.1080000e-02
 8.3880000e-02
 9.7340000e-02
 1.1130000e-01
 1.2566000e-01
 1.4034000e-01
 1.5514000e-01
 1.6998000e-01
 1.8450000e-01
 1.9856000e-01
 2.1190000e-01
 2.2422000e-01
 2.3530000e-01
 2.4520000e-01
 2.5348000e-01
 2.6018000e-01
 2.6514000e-01
 2.6832000e-01
 2.7000000e-01
 2.6900000e-01
 2.6650000e-01
 2.6210000e-01
 2.5566000e-01
 2.4750000e-01
 2.3760000e-01
 2.2660000e-01
 2.1436000e-01
 2.0134000e-01
 1.8780000e-01
 1.7376000e-01
 1.5952000e-01
 1.4528000e-01
 1.3108000e-01
 1.1720000e-01
 1.0372000e-01
 9.0720000e-02
 7.8320000e-02
 6.6660000e-02
 5.5600000e-02
 4.5640000e-02
 3.6420000e-02
 2.8100000e-02
 2.0780000e-02
 1.4100000e-02
 8.3000000e-03
 3.2200000e-03
 1.0000000e-04
 0.0000000e+00
 0.0000000e+00
 0.0000000e+00
 0.0000000e+00
 0.0000000e+00
 0.0000000e+00
 0.0000000e+00
 0.0000000e+00
 0.0000000e+00
 0.0000000e+00
 0.0000000e+00
 0.0000000e+00
 0.0000000e+00
 0.0000000e+00
 0.0000000e+00
 0.0000000e+00
 0.0000000e+00
 0.0000000e+00
 0.0000000e+00
 0.0000000e+00
 0.0000000e+00
 0.0000000e+00
 0.0000000e+00
 0.0000000e+00
 0.0000000e+00
 0.0000000e+00
 0.0000000e+00
 0.0000000e+00
 0.0000000e+00
 0.0000000e+00
 0.0000000e+00
-3.7000000e-03
-6.8400000e-03
-9.4000000e-03
-1.1800000e-02
-1.4140000e-02
-1.6800000e-02
-2.0280000e-02
-2.4820000e-02
-3.0900000e-02
-3.9100000e-02
-5.0200000e-02
-6.5120000e-02
-8.3340000e-02
-1.0422000e-01
-1.2650000e-01
-1.4850000e-01
-1.6764000e-01
-1.8116000e-01
-1.8516000e-01
-1.7534000e-01
-1.5000000e-01
-1.0366000e-01
-3.7220000e-02
 5.2300000e-02
 1.6594000e-01
 3.0080000e-01
 4.5374000e-01
 6.1380000e-01
 7.7292000e-01
 9.1982000e-01
 1.0443000e+00
 1.1275600e+00
 1.1641200e+00
 1.1482800e+00
 1.0830000e+00
 9.7670000e-01
 8.3248000e-01
 6.6656000e-01
 4.9072000e-01
 3.1988000e-01
 1.6100000e-01
 2.3120000e-02
-9.2480000e-02
-1.8168000e-01
-2.4390000e-01
-2.8250000e-01
-2.9652000e-01
-2.9266000e-01
-2.7418000e-01
-2.4592000e-01
-2.1170000e-01
-1.7510000e-01
-1.3938000e-01
-1.0722000e-01
-8.0780000e-02
-5.9100000e-02
-4.2780000e-02
-3.0240000e-02
-2.1200000e-02
-1.4920000e-02
-1.0400000e-02
-7.2200000e-03
-4.4800000e-03
-2.0000000e-03
-1.4000000e-04
 0.0000000e+00
 0.0000000e+00
 0.0000000e+00
 0.0000000e+00
 0.0000000e+00
 0.0000000e+00
 0.0000000e+00
 0.0000000e+00
 0.0000000e+00
 0.0000000e+00
 0.0000000e+00
 0.0000000e+00
 0.0000000e+00
 0.0000000e+00
 0.0000000e+00
 0.0000000e+00
 0.0000000e+00
 0.0000000e+00
 0.0000000e+00
 0.0000000e+00
 0.0000000e+00
 0.0000000e+00
 0.0000000e+00
 0.0000000e+00
 0.0000000e+00
 0.0000000e+00
 0.0000000e+00
 0.0000000e+00
 0.0000000e+00
 0.0000000e+00
 0.0000000e+00
 0.0000000e+00
 0.0000000e+00
 0.0000000e+00
 0.0000000e+00
 0.0000000e+00
 0.0000000e+00
 0.0000000e+00
 0.0000000e+00
 0.0000000e+00
 0.0000000e+00
 0.0000000e+00
 0.0000000e+00
 0.0000000e+00
 0.0000000e+00
 0.0000000e+00
 0.0000000e+00
 0.0000000e+00
 0.0000000e+00
 1.0400000e-03
 4.0000000e-03
 6.5600000e-03
 9.1600000e-03
 1.2120000e-02
 1.5340000e-02
 1.8800000e-02
 2.2540000e-02
 2.6640000e-02
 3.1040000e-02
 3.5840000e-02
 4.0900000e-02
 4.6520000e-02
 5.2480000e-02
 5.8960000e-02
 6.5800000e-02
 7.3100000e-02
 8.0960000e-02
 8.9300000e-02
 9.8180000e-02
 1.0754000e-01
 1.1740000e-01
 1.2786000e-01
 1.3870000e-01
 1.4998000e-01
 1.6184000e-01
 1.7420000e-01
 1.8684000e-01
 1.9988000e-01
 2.1340000e-01
 2.2704000e-01
 2.4100000e-01
 2.5518000e-01
 2.6948000e-01
 2.8380000e-01
 2.9820000e-01
 3.1250000e-01
 3.2658000e-01
 3.4052000e-01
 3.5412000e-01
 3.6734000e-01
 3.8010000e-01
 3.9224000e-01
 4.0370000e-01
 4.1450000e-01
 4.2436000e-01
 4.3340000e-01
 4.4142000e-01
 4.4850000e-01
 4.5450000e-01
 4.5938000e-01
 4.6320000e-01
 4.6578000e-01
 4.6736000e-01
 4.6944000e-01
 4.7476000e-01
 4.7920000e-01
 4.8228000e-01
 4.8424000e-01
 4.8512000e-01
 4.8416000e-01
 4.8240000e-01
 4.7928000e-01
 4.7510000e-01
 4.6982000e-01
 4.6348000e-01
 4.5610000e-01
 4.4792000e-01
 4.3890000e-01
 4.2898000e-01
 4.1834000e-01
 4.0700000e-01
 3.9498000e-01
 3.8238000e-01
 3.6934000e-01
 3.5582000e-01
 3.4180000e-01
 3.2750000e-01
 3.1294000e-01
 2.9806000e-01
 2.8304000e-01
 2.6790000e-01
 2.5280000e-01
 2.3772000e-01
 2.2268000e-01
 2.0782000e-01
 1.9320000e-01
 1.7896000e-01
 1.6510000e-01
 1.5166000e-01
 1.3864000e-01
 1.2620000e-01
 1.1412000e-01
 1.0258000e-01
 9.1460000e-02
 8.0740000e-02
 7.0600000e-02
 6.0960000e-02
 5.1680000e-02
 4.2800000e-02
 3.4500000e-02
 2.6600000e-02
 1.9000000e-02
 1.1860000e-02
 5.1400000e-03
 2.8000000e-04
 0.0000000e+00
 0.0000000e+00
 0.0000000e+00
 0.0000000e+00
 0.0000000e+00
 0.0000000e+00
 0.0000000e+00
 0.0000000e+00
 0.0000000e+00
 0.0000000e+00
 0.0000000e+00
 0.0000000e+00
 0.0000000e+00
 0.0000000e+00
 0.0000000e+00
 0.0000000e+00
 0.0000000e+00
 0.0000000e+00
 0.0000000e+00
 0.0000000e+00
 0.0000000e+00
 0.0000000e+00
 0.0000000e+00
 0.0000000e+00
 0.0000000e+00
 0.0000000e+00
 0.0000000e+00
 0.0000000e+00
 0.0000000e+00
 0.0000000e+00
 0.0000000e+00
-6.0000000e-05
 7.0000000e-04
 6.7800000e-03
 1.4440000e-02
 2.2800000e-02
 3.2100000e-02
 4.2240000e-02
 5.3200000e-02
 6.4940000e-02
 7.7400000e-02
 9.0540000e-02
 1.0426000e-01
 1.1842000e-01
 1.3298000e-01
 1.4770000e-01
 1.6258000e-01
 1.7730000e-01
 1.9162000e-01
 2.0532000e-01
 2.1830000e-01
 2.2990000e-01
 2.4040000e-01
 2.4952000e-01
 2.5704000e-01
 2.6290000e-01
 2.6696000e-01
 2.6928000e-01
 2.6968000e-01
 2.6796000e-01
 2.6450000e-01
 2.5910000e-01
 2.5182000e-01
 2.4270000e-01
 2.3224000e-01
 2.2060000e-01
 2.0794000e-01
 1.9460000e-01
 1.8084000e-01
 1.6664000e-01
 1.5240000e-01
 1.3816000e-01
 1.2408000e-01
 1.1040000e-01
 9.7160000e-02
 8.4400000e-02
 7.2420000e-02
 6.1040000e-02
 5.0560000e-02
 4.0920000e-02
 3.2100000e-02
 2.4340000e-02
 1.7380000e-02
 1.1140000e-02
 5.6600000e-03
 9.0000000e-04
-4.0000000e-05
 0.0000000e+00
 0.0000000e+00
 0.0000000e+00
 0.0000000e+00
 0.0000000e+00
 0.0000000e+00
 0.0000000e+00
 0.0000000e+00
 0.0000000e+00
 0.0000000e+00
 0.0000000e+00
 0.0000000e+00
 0.0000000e+00
 0.0000000e+00
 0.0000000e+00
 0.0000000e+00
 0.0000000e+00
 0.0000000e+00
 0.0000000e+00
 0.0000000e+00
 0.0000000e+00
 0.0000000e+00
 0.0000000e+00
 0.0000000e+00
 0.0000000e+00
 0.0000000e+00
 0.0000000e+00
 0.0000000e+00
 0.0000000e+00
 0.0000000e+00
-7.4000000e-04
-5.3000000e-03
-8.2000000e-03
-1.0600000e-02
-1.2940000e-02
-1.5440000e-02
-1.8480000e-02
-2.2360000e-02
-2.7700000e-02
-3.4700000e-02
-4.4200000e-02
-5.7240000e-02
-7.3840000e-02
-9.3500000e-02
-1.1530000e-01
-1.3762000e-01
-1.5858000e-01
-1.7528000e-01
-1.8500000e-01
-1.8202000e-01
-1.6480000e-01
-1.2920000e-01
-7.3060000e-02
 3.9000000e-03
 1.0634000e-01
 2.3088000e-01
 3.7592000e-01
 5.3334000e-01
 6.9420000e-01
 8.4858000e-01
 9.8542000e-01
 1.0914200e+00
 1.1519200e+00
 1.1642000e+00
 1.1210800e+00
 1.0346200e+00
 9.0798000e-01
 7.5156000e-01
 5.7880000e-01
 4.0420000e-01
 2.3852000e-01
 8.9480000e-02
-3.7640000e-02
-1.4120000e-01
-2.1586000e-01
-2.6602000e-01
-2.9194000e-01
-2.9660000e-01
-2.8530000e-01
-2.6096000e-01
-2.2938000e-01
-1.9346000e-01
-1.5698000e-01
-1.2250000e-01
-9.3380000e-02
-6.9340000e-02
-5.0460000e-02
-3.6060000e-02
-2.5200000e-02
-1.7800000e-02
-1.2480000e-02
-8.7200000e-03
-5.8200000e-03
-3.2000000e-03
-8.6000000e-04
 8.0000000e-05
 0.0000000e+00
 0.0000000e+00
 0.0000000e+00
 0.0000000e+00
 0.0000000e+00
 0.0000000e+00
 0.0000000e+00
 0.0000000e+00
 0.0000000e+00
 0.0000000e+00
 0.0000000e+00
 0.0000000e+00
 0.0000000e+00
 0.0000000e+00
 0.0000000e+00
 0.0000000e+00
 0.0000000e+00
 0.0000000e+00
 0.0000000e+00
 0.0000000e+00
 0.0000000e+00
 0.0000000e+00
 0.0000000e+00
 0.0000000e+00
 0.0000000e+00
 0.0000000e+00
 0.0000000e+00
 0.0000000e+00
 0.0000000e+00
 0.0000000e+00
 0.0000000e+00
 0.0000000e+00
 0.0000000e+00
 0.0000000e+00
 0.0000000e+00
 0.0000000e+00
 0.0000000e+00
 0.0000000e+00
 0.0000000e+00
 0.0000000e+00
 0.0000000e+00
 0.0000000e+00
 0.0000000e+00
 0.0000000e+00
 0.0000000e+00
 0.0000000e+00
 0.0000000e+00
 0.0000000e+00
 0.0000000e+00
 2.8800000e-03
 5.2800000e-03
 7.8400000e-03
 1.0600000e-02
 1.3700000e-02
 1.7040000e-02
 2.0640000e-02
 2.4540000e-02
 2.8800000e-02
 3.3400000e-02
 3.8340000e-02
 4.3620000e-02
 4.9480000e-02
 5.5600000e-02
 6.2320000e-02
 6.9420000e-02
 7.6940000e-02
 8.5080000e-02
 9.3700000e-02
 1.0278000e-01
 1.1244000e-01
 1.2260000e-01
 1.3322000e-01
 1.4430000e-01
 1.5584000e-01
 1.6796000e-01
 1.8052000e-01
 1.9328000e-01
 2.0660000e-01
 2.2020000e-01
 2.3396000e-01
 2.4812000e-01
 2.6230000e-01
 2.7660000e-01
 2.9100000e-01
 3.0538000e-01
 3.1954000e-01
 3.3358000e-01
 3.4740000e-01
 3.6078000e-01
 3.7378000e-01
 3.8626000e-01
 3.9804000e-01
 4.0930000e-01
 4.1952000e-01
 4.2900000e-01
 4.3756000e-01
 4.4506000e-01
 4.5170000e-01
 4.5706000e-01
 4.6144000e-01
 4.6464000e-01
 4.6670000e-01
 4.6760000e-01
 4.7212000e-01
 4.7704000e-01
 4.8080000e-01
 4.8344000e-01
 4.8480000e-01
 4.8472000e-01
 4.8352000e-01
 4.8096000e-01
 4.7732000e-01
 4.7270000e-01
 4.6676000e-01
 4.5994000e-01
 4.5210000e-01
 4.4352000e-01
 4.3410000e-01
 4.2374000e-01
 4.1276000e-01
 4.0108000e-01
 3.8874000e-01
 3.7590000e-01
 3.6266000e-01
 3.4884000e-01
 3.3468000e-01
 3.2026000e-01
 3.0550000e-01
 2.9056000e-01
 2.7550000e-01
 2.6038000e-01
 2.4524000e-01
 2.3020000e-01
 2.1522000e-01
 2.0048000e-01
 1.8608000e-01
 1.7196000e-01
 1.5830000e-01
 1.4508000e-01
 1.3236000e-01
 1.2004000e-01
 1.0832000e-01
 9.6900000e-02
 8.6020000e-02
 7.5640000e-02
 6.5720000e-02
 5.6280000e-02
 4.7200000e-02
 3.8580000e-02
 3.0520000e-02
 2.2680000e-02
 1.5400000e-02
 8.5000000e-03
 2.0800000e-03
-1.6000000e-04
 0.0000000e+00
 0.0000000e+00
 0.0000000e+00
 0.0000000e+00
 0.0000000e+00
 0.0000000e+00
 0.0000000e+00
 0.0000000e+00
 0.0000000e+00
 0.0000000e+00
 0.0000000e+00
 0.0000000e+00
 0.0000000e+00
 0.0000000e+00
 0.0000000e+00
 0.0000000e+00
 0.0000000e+00
 0.0000000e+00
 0.0000000e+00
 0.0000000e+00
 0.0000000e+00
 0.0000000e+00
 0.0000000e+00
 0.0000000e+00
 0.0000000e+00
 0.0000000e+00
 0.0000000e+00
 0.0000000e+00
 0.0000000e+00
 0.0000000e+00
 0.0000000e+00
-2.0000000e-05
 3.1000000e-03
 1.0520000e-02
 1.8560000e-02
 2.7360000e-02
 3.7060000e-02
 4.7600000e-02
 5.8980000e-02
 7.1080000e-02
 8.3880000e-02
 9.7340000e-02
 1.1130000e-01
 1.2566000e-01
 1.4034000e-01
 1.5514000e-01
 1.6998000e-01
 1.8450000e-01
 1.9856000e-01
 2.1190000e-01
 2.2422000e-01
 2.3530000e-01
 2.4520000e-01
 2.5348000e-01
 2.6018000e-01
 2.6514000e-01
 2.6832000e-01
 2.7000000e-01
 2.6900000e-01
 2.6650000e-01
 2.6210000e-01
 2.5566000e-01
 2.4750000e-01
 2.3760000e-01
 2.2660000e-01
 2.1436000e-01
 2.0134000e-01
 1.8780000e-01
 1.7376000e-01
 1.5952000e-01
 1.4528000e-01
 1.3108000e-01
 1.1720000e-01
 1.0372000e-01
 9.0720000e-02
 7.8320000e-02
 6.6660000e-02
 5.5600000e-02
 4.5640000e-02
 3.6420000e-02
 2.8100000e-02
 2.0780000e-02
 1.4100000e-02
 8.3000000e-03
 3.2200000e-03
 1.0000000e-04
 0.0000000e+00
 0.0000000e+00
 0.0000000e+00
 0.0000000e+00
 0.0000000e+00
 0.0000000e+00
 0.0000000e+00
 0.0000000e+00
 0.0000000e+00
 0.0000000e+00
 0.0000000e+00
 0.0000000e+00
 0.0000000e+00
 0.0000000e+00
 0.0000000e+00
 0.0000000e+00
 0.0000000e+00
 0.0000000e+00
 0.0000000e+00
 0.0000000e+00
 0.0000000e+00
 0.0000000e+00
 0.0000000e+00
 0.0000000e+00
 0.0000000e+00
 0.0000000e+00
 0.0000000e+00
 0.0000000e+00
 0.0000000e+00
 0.0000000e+00
 0.0000000e+00
-3.7000000e-03
-6.8400000e-03
-9.4000000e-03
-1.1800000e-02
-1.4140000e-02
-1.6800000e-02
-2.0280000e-02
-2.4820000e-02
-3.0900000e-02
-3.9100000e-02
-5.0200000e-02
-6.5120000e-02
-8.3340000e-02
-1.0422000e-01
-1.2650000e-01
-1.4850000e-01
-1.6764000e-01
-1.8116000e-01
-1.8516000e-01
-1.7534000e-01
-1.5000000e-01
-1.0366000e-01
-3.7220000e-02
 5.2300000e-02
 1.6594000e-01
 3.0080000e-01
 4.5374000e-01
 6.1380000e-01
 7.7292000e-01
 9.1982000e-01
 1.0443000e+00
 1.1275600e+00
 1.1641200e+00
 1.1482800e+00
 1.0830000e+00
 9.7670000e-01
 8.3248000e-01
 6.6656000e-01
 4.9072000e-01
 3.1988000e-01
 1.6100000e-01
 2.3120000e-02
-9.2480000e-02
-1.8168000e-01
-2.4390000e-01
-2.8250000e-01
-2.9652000e-01
-2.9266000e-01
-2.7418000e-01
-2.4592000e-01
-2.1170000e-01
-1.7510000e-01
-1.3938000e-01
-1.0722000e-01
-8.0780000e-02
-5.9100000e-02
-4.2780000e-02
-3.0240000e-02
-2.1200000e-02
-1.4920000e-02
-1.0400000e-02
-7.2200000e-03
-4.4800000e-03
-2.0000000e-03
-1.4000000e-04
 0.0000000e+00
 0.0000000e+00
 0.0000000e+00
 0.0000000e+00
 0.0000000e+00
 0.0000000e+00
 0.0000000e+00
 0.0000000e+00
 0.0000000e+00
 0.0000000e+00
 0.0000000e+00
 0.0000000e+00
 0.0000000e+00
 0.0000000e+00
 0.0000000e+00
 0.0000000e+00
 0.0000000e+00
 0.0000000e+00
 0.0000000e+00
 0.0000000e+00
 0.0000000e+00
 0.0000000e+00
 0.0000000e+00
 0.0000000e+00
 0.0000000e+00
 0.0000000e+00
 0.0000000e+00
 0.0000000e+00
 0.0000000e+00
 0.0000000e+00
 0.0000000e+00
 0.0000000e+00
 0.0000000e+00
 0.0000000e+00
 0.0000000e+00
 0.0000000e+00
 0.0000000e+00
 0.0000000e+00
 0.0000000e+00
 0.0000000e+00
 0.0000000e+00
 0.0000000e+00
 0.0000000e+00
 0.0000000e+00
 0.0000000e+00
 0.0000000e+00
 0.0000000e+00
 0.0000000e+00
 0.0000000e+00
 1.0400000e-03
 4.0000000e-03
 6.5600000e-03
 9.1600000e-03
 1.2120000e-02
 1.5340000e-02
 1.8800000e-02
 2.2540000e-02
 2.6640000e-02
 3.1040000e-02
 3.5840000e-02
 4.0900000e-02
 4.6520000e-02
 5.2480000e-02
 5.8960000e-02
 6.5800000e-02
 7.3100000e-02
 8.0960000e-02
 8.9300000e-02
 9.8180000e-02
 1.0754000e-01
 1.1740000e-01
 1.2786000e-01
 1.3870000e-01
 1.4998000e-01
 1.6184000e-01
 1.7420000e-01
 1.8684000e-01
 1.9988000e-01
 2.1340000e-01
 2.2704000e-01
 2.4100000e-01
 2.5518000e-01
 2.6948000e-01
 2.8380000e-01
 2.9820000e-01
 3.1250000e-01
 3.2658000e-01
 3.4052000e-01
 3.5412000e-01
 3.6734000e-01
 3.8010000e-01
 3.9224000e-01
 4.0370000e-01
 4.1450000e-01
 4.2436000e-01
 4.3340000e-01
 4.4142000e-01
 4.4850000e-01
 4.5450000e-01
 4.5938000e-01
 4.6320000e-01
 4.6578000e-01
 4.6736000e-01
 4.6944000e-01
 4.7476000e-01
 4.7920000e-01
 4.8228000e-01
 4.8424000e-01
 4.8512000e-01
 4.8416000e-01
 4.8240000e-01
 4.7928000e-01
 4.7510000e-01
 4.6982000e-01
 4.6348000e-01
 4.5610000e-01
 4.4792000e-01
 4.3890000e-01
 4.2898000e-01
 4.1834000e-01
 4.0700000e-01
 3.9498000e-01
 3.8238000e-01
 3.6934000e-01
 3.5582000e-01
 3.4180000e-01
 3.2750000e-01
 3.1294000e-01
 2.9806000e-01
 2.8304000e-01
 2.6790000e-01
 2.5280000e-01
 2.3772000e-01
 2.2268000e-01
 2.0782000e-01
 1.9320000e-01
 1.7896000e-01
 1.6510000e-01
 1.5166000e-01
 1.3864000e-01
 1.2620000e-01
 1.1412000e-01
 1.0258000e-01
 9.1460000e-02
 8.0740000e-02
 7.0600000e-02
 6.0960000e-02
 5.1680000e-02
 4.2800000e-02
 3.4500000e-02
 2.6600000e-02
 1.9000000e-02
 1.1860000e-02
 5.1400000e-03
 2.8000000e-04
 0.0000000e+00
 0.0000000e+00
 0.0000000e+00
 0.0000000e+00
 0.0000000e+00
 0.0000000e+00
 0.0000000e+00
 0.0000000e+00
 0.0000000e+00
 0.0000000e+00
 0.0000000e+00
 0.0000000e+00
 0.0000000e+00
 0.0000000e+00
 0.0000000e+00
 0.0000000e+00
 0.0000000e+00
 0.0000000e+00
 0.0000000e+00
 0.0000000e+00
 0.0000000e+00
 0.0000000e+00
 0.0000000e+00
 0.0000000e+00
 0.0000000e+00
 0.0000000e+00
 0.0000000e+00
 0.0000000e+00
 0.0000000e+00
 0.0000000e+00
 0.0000000e+00
-6.0000000e-05
 7.0000000e-04
 6.7800000e-03
 1.4440000e-02
 2.2800000e-02
 3.2100000e-02
 4.2240000e-02
 5.3200000e-02
 6.4940000e-02
 7.7400000e-02
 9.0540000e-02
 1.0426000e-01
 1.1842000e-01
 1.3298000e-01
 1.4770000e-01
 1.6258000e-01
 1.7730000e-01
 1.9162000e-01
 2.0532000e-01
 2.1830000e-01
 2.2990000e-01
 2.4040000e-01
 2.4952000e-01
 2.5704000e-01
 2.6290000e-01
 2.6696000e-01
 2.6928000e-01
 2.6968000e-01
 2.6796000e-01
 2.6450000e-01
 2.5910000e-01
 2.5182000e-01
 2.4270000e-01
 2.3224000e-01
 2.2060000e-01
 2.0794000e-01
 1.9460000e-01
 1.8084000e-01
 1.6664000e-01
 1.5240000e-01
 1.3816000e-01
 1.2408000e-01
 1.1040000e-01
 9.7160000e-02
 8.4400000e-02
 7.2420000e-02
 6.1040000e-02
 5.0560000e-02
 4.0920000e-02
 3.2100000e-02
 2.4340000e-02
 1.7380000e-02
 1.1140000e-02
 5.6600000e-03
 9.0000000e-04
-4.0000000e-05
 0.0000000e+00
 0.0000000e+00
 0.0000000e+00
 0.0000000e+00
 0.0000000e+00
 0.0000000e+00
 0.0000000e+00
 0.0000000e+00
 0.0000000e+00
 0.0000000e+00
 0.0000000e+00
 0.0000000e+00
 0.0000000e+00
 0.0000000e+00
 0.0000000e+00
 0.0000000e+00
 0.0000000e+00
 0.0000000e+00
 0.0000000e+00
 0.0000000e+00
 0.0000000e+00
 0.0000000e+00
 0.0000000e+00
 0.0000000e+00
 0.0000000e+00
 0.0000000e+00
 0.0000000e+00
 0.0000000e+00
 0.0000000e+00
 0.0000000e+00
-7.4000000e-04
-5.3000000e-03
-8.2000000e-03
-1.0600000e-02
-1.2940000e-02
-1.5440000e-02
-1.8480000e-02
-2.2360000e-02
-2.7700000e-02
-3.4700000e-02
-4.4200000e-02
-5.7240000e-02
-7.3840000e-02
-9.3500000e-02
-1.1530000e-01
-1.3762000e-01
-1.5858000e-01
-1.7528000e-01
-1.8500000e-01
-1.8202000e-01
-1.6480000e-01
-1.2920000e-01
-7.3060000e-02
 3.9000000e-03
 1.0634000e-01
 2.3088000e-01
 3.7592000e-01
 5.3334000e-01
 6.9420000e-01
 8.4858000e-01
 9.8542000e-01
 1.0914200e+00
 1.1519200e+00
 1.1642000e+00
 1.1210800e+00
 1.0346200e+00
 9.0798000e-01
 7.5156000e-01
 5.7880000e-01
 4.0420000e-01
 2.3852000e-01
 8.9480000e-02
-3.7640000e-02
-1.4120000e-01
-2.1586000e-01
-2.6602000e-01
-2.9194000e-01
-2.9660000e-01
-2.8530000e-01
-2.6096000e-01
-2.2938000e-01
-1.9346000e-01
-1.5698000e-01
-1.2250000e-01
-9.3380000e-02
-6.9340000e-02
-5.0460000e-02
-3.6060000e-02
-2.5200000e-02
-1.7800000e-02
-1.2480000e-02
-8.7200000e-03
-5.8200000e-03
-3.2000000e-03
-8.6000000e-04
 8.0000000e-05
 0.0000000e+00
 0.0000000e+00
 0.0000000e+00
 0.0000000e+00
 0.0000000e+00
 0.0000000e+00
 0.0000000e+00
 0.0000000e+00
 0.0000000e+00
 0.0000000e+00
 0.0000000e+00
 0.0000000e+00
 0.0000000e+00
 0.0000000e+00
 0.0000000e+00
 0.0000000e+00
 0.0000000e+00
 0.0000000e+00
 0.0000000e+00
 0.0000000e+00
 0.0000000e+00
 0.0000000e+00
 0.0000000e+00
 0.0000000e+00
 0.0000000e+00
 0.0000000e+00
 0.0000000e+00
 0.0000000e+00
 0.0000000e+00
 0.0000000e+00
 0.0000000e+00
 0.0000000e+00
 0.0000000e+00
 0.0000000e+00
 0.0000000e+00
 0.0000000e+00
 0.0000000e+00
 0.0000000e+00
 0.0000000e+00
 0.0000000e+00
 0.0000000e+00
 0.0000000e+00
 0.0000000e+00
 0.0000000e+00
 0.0000000e+00
 0.0000000e+00
 0.0000000e+00
 0.0000000e+00
 0.0000000e+00
 2.8800000e-03
 5.2800000e-03
 7.8400000e-03
 1.0600000e-02
 1.3700000e-02
 1.7040000e-02
 2.0640000e-02
 2.4540000e-02
 2.8800000e-02
 3.3400000e-02
 3.8340000e-02
 4.3620000e-02
 4.9480000e-02
 5.5600000e-02
 6.2320000e-02
 6.9420000e-02
 7.6940000e-02
 8.5080000e-02
 9.3700000e-02
 1.0278000e-01
 1.1244000e-01
 1.2260000e-01
 1.3322000e-01
 1.4430000e-01
 1.5584000e-01
 1.6796000e-01
 1.8052000e-01
 1.9328000e-01
 2.0660000e-01
 2.2020000e-01
 2.3396000e-01
 2.4812000e-01
 2.6230000e-01
 2.7660000e-01
 2.9100000e-01
 3.0538000e-01
 3.1954000e-01
 3.3358000e-01
 3.4740000e-01
 3.6078000e-01
 3.7378000e-01
 3.8626000e-01
 3.9804000e-01
 4.0930000e-01
 4.1952000e-01
 4.2900000e-01
 4.3756000e-01
 4.4506000e-01
 4.5170000e-01
 4.5706000e-01
 4.6144000e-01
 4.6464000e-01
 4.6670000e-01
 4.6760000e-01
 4.7212000e-01
 4.7704000e-01
 4.8080000e-01
 4.8344000e-01
 4.8480000e-01
 4.8472000e-01
 4.8352000e-01
 4.8096000e-01
 4.7732000e-01
 4.7270000e-01
 4.6676000e-01
 4.5994000e-01
 4.5210000e-01
 4.4352000e-01
 4.3410000e-01
 4.2374000e-01
 4.1276000e-01
 4.0108000e-01
 3.8874000e-01
 3.7590000e-01
 3.6266000e-01
 3.4884000e-01
 3.3468000e-01
 3.2026000e-01
 3.0550000e-01
 2.9056000e-01
 2.7550000e-01
 2.6038000e-01
 2.4524000e-01
 2.3020000e-01
 2.1522000e-01
 2.0048000e-01
 1.8608000e-01
 1.7196000e-01
 1.5830000e-01
 1.4508000e-01
 1.3236000e-01
 1.2004000e-01
 1.0832000e-01
 9.6900000e-02
 8.6020000e-02
 7.5640000e-02
 6.5720000e-02
 5.6280000e-02
 4.7200000e-02
 3.8580000e-02
 3.0520000e-02
 2.2680000e-02
 1.5400000e-02
 8.5000000e-03
 2.0800000e-03
-1.6000000e-04
 0.0000000e+00
 0.0000000e+00
 0.0000000e+00
 0.0000000e+00
 0.0000000e+00
 0.0000000e+00
 0.0000000e+00
 0.0000000e+00
 0.0000000e+00
 0.0000000e+00
 0.0000000e+00
 0.0000000e+00
 0.0000000e+00
 0.0000000e+00
 0.0000000e+00
 0.0000000e+00
 0.0000000e+00
 0.0000000e+00
 0.0000000e+00
 0.0000000e+00
 0.0000000e+00
 0.0000000e+00
 0.0000000e+00
 0.0000000e+00
 0.0000000e+00
 0.0000000e+00
 0.0000000e+00
 0.0000000e+00
 0.0000000e+00
 0.0000000e+00
 0.0000000e+00
-2.0000000e-05
 3.1000000e-03
 1.0520000e-02
 1.8560000e-02
 2.7360000e-02
 3.7060000e-02
 4.7600000e-02
 5.8980000e-02
 7.1080000e-02
 8.3880000e-02
 9.7340000e-02
 1.1130000e-01
 1.2566000e-01
 1.4034000e-01
 1.5514000e-01
 1.6998000e-01
 1.8450000e-01
 1.9856000e-01
 2.1190000e-01
 2.2422000e-01
 2.3530000e-01
 2.4520000e-01
 2.5348000e-01
 2.6018000e-01
 2.6514000e-01
 2.6832000e-01
 2.7000000e-01
 2.6900000e-01
 2.6650000e-01
 2.6210000e-01
 2.5566000e-01
 2.4750000e-01
 2.3760000e-01
 2.2660000e-01
 2.1436000e-01
 2.0134000e-01
 1.8780000e-01
 1.7376000e-01
 1.5952000e-01
 1.4528000e-01
 1.3108000e-01
 1.1720000e-01
 1.0372000e-01
 9.0720000e-02
 7.8320000e-02
 6.6660000e-02
 5.5600000e-02
 4.5640000e-02
 3.6420000e-02
 2.8100000e-02
 2.0780000e-02
 1.4100000e-02
 8.3000000e-03
 3.2200000e-03
 1.0000000e-04
 0.0000000e+00
 0.0000000e+00
 0.0000000e+00
 0.0000000e+00
 0.0000000e+00
 0.0000000e+00
 0.0000000e+00
 0.0000000e+00
 0.0000000e+00
 0.0000000e+00
 0.0000000e+00
 0.0000000e+00
 0.0000000e+00
 0.0000000e+00
 0.0000000e+00
 0.0000000e+00
 0.0000000e+00
 0.0000000e+00
 0.0000000e+00
 0.0000000e+00
 0.0000000e+00
 0.0000000e+00
 0.0000000e+00
 0.0000000e+00
 0.0000000e+00
 0.0000000e+00
 0.0000000e+00
 0.0000000e+00
 0.0000000e+00
 0.0000000e+00
 0.0000000e+00
-3.7000000e-03
-6.8400000e-03
-9.4000000e-03
-1.1800000e-02
-1.4140000e-02
-1.6800000e-02
-2.0280000e-02
-2.4820000e-02
-3.0900000e-02
-3.9100000e-02
-5.0200000e-02
-6.5120000e-02
-8.3340000e-02
-1.0422000e-01
-1.2650000e-01
-1.4850000e-01
-1.6764000e-01
-1.8116000e-01
-1.8516000e-01
-1.7534000e-01
-1.5000000e-01
-1.0366000e-01
-3.7220000e-02
 5.2300000e-02
 1.6594000e-01
 3.0080000e-01
 4.5374000e-01
 6.1380000e-01
 7.7292000e-01
 9.1982000e-01
 1.0443000e+00
 1.1275600e+00
 1.1641200e+00
 1.1482800e+00
 1.0830000e+00
 9.7670000e-01
 8.3248000e-01
 6.6656000e-01
 4.9072000e-01
 3.1988000e-01
 1.6100000e-01
 2.3120000e-02
-9.2480000e-02
-1.8168000e-01
-2.4390000e-01
-2.8250000e-01
-2.9652000e-01
-2.9266000e-01
-2.7418000e-01
-2.4592000e-01
-2.1170000e-01
-1.7510000e-01
-1.3938000e-01
-1.0722000e-01
-8.0780000e-02
-5.9100000e-02
-4.2780000e-02
-3.0240000e-02
-2.1200000e-02
-1.4920000e-02
-1.0400000e-02
-7.2200000e-03
-4.4800000e-03
-2.0000000e-03
-1.4000000e-04
 0.0000000e+00
 0.0000000e+00
 0.0000000e+00
 0.0000000e+00
 0.0000000e+00
 0.0000000e+00
 5.0345521e-24
 3.6131249e-25
 2.5932112e-26
 1.8611564e-27
 0.0000000e+00
 9.5824512e-30
 6.8851780e-31
 0.0000000e+00
 3.5548045e-33
 0.0000000e+00
 1.8315594e-35
 1.3132435e-36
 0.0000000e+00
 6.7802514e-39
 0.0000000e+00
 3.4897489e-41
 2.5094049e-42
 0.0000000e+00
 3.3093065e-44
 0.0000000e+00
 3.9147750e-42
 5.4531918e-41
 0.0000000e+00
 1.0577686e-38
 0.0000000e+00
 2.0515668e-36
 2.8583208e-35
 0.0000000e+00
 5.5445212e-33
 0.0000000e+00
 1.0754541e-30
 1.4982046e-29
 0.0000000e+00
 2.9064413e-27
 0.0000000e+00
 5.6372359e-25
 7.8509366e-24
 0.0000000e+00
 1.5232193e-21
 0.0000000e+00
 2.9557520e-19
 4.1151110e-18
 0.0000000e+00
 1.0400000e-03
 4.0000000e-03
 6.5600000e-03
 9.1600000e-03
 1.2120000e-02
 1.5340000e-02
 1.8800000e-02
 2.2540000e-02
 2.6640000e-02
 3.1040000e-02
 3.5840000e-02
 4.0900000e-02
 4.6520000e-02
 5.2480000e-02
 5.8960000e-02
 6.5800000e-02
 7.3100000e-02
 8.0960000e-02
 8.9300000e-02
 9.8180000e-02
 1.0754000e-01
 1.1740000e-01
 1.2786000e-01
 1.3870000e-01
 1.4998000e-01
 1.6184000e-01
 1.7420000e-01
 1.8684000e-01
 1.9988000e-01
 2.1340000e-01
 2.2704000e-01
 2.4100000e-01
 2.5518000e-01
 2.6948000e-01
 2.8380000e-01
 2.9820000e-01
 3.1250000e-01
 3.2658000e-01
 3.4052000e-01
 3.5412000e-01
 3.6734000e-01
 3.8010000e-01
 3.9224000e-01
 4.0370000e-01
 4.1450000e-01
 4.2436000e-01
 4.3340000e-01
 4.4142000e-01
 4.4850000e-01
 4.5450000e-01
 4.5938000e-01
 4.6320000e-01
 4.6578000e-01
 4.6736000e-01
 4.6944000e-01
 4.7476000e-01
 4.7920000e-01
 4.8228000e-01
 4.8424000e-01
 4.8512000e-01
 4.8416000e-01
 4.8240000e-01
 4.7928000e-01
 4.7510000e-01
 4.6982000e-01
 4.6348000e-01
 4.5610000e-01
 4.4792000e-01
 4.3890000e-01
 4.2898000e-01
 4.1834000e-01
 4.0700000e-01
 3.9498000e-01
 3.8238000e-01
 3.6934000e-01
 3.5582000e-01
 3.4180000e-01
 3.2750000e-01
 3.1294000e-01
 2.9806000e-01
 2.8304000e-01
 2.6790000e-01
 2.5280000e-01
 2.3772000e-01
 2.2268000e-01
 2.0782000e-01
 1.9320000e-01
 1.7896000e-01
 1.6510000e-01
 1.5166000e-01
 1.3864000e-01
 1.2620000e-01
 1.1412000e-01
 1.0258000e-01
 9.1460000e-02
 8.0740000e-02
 7.0600000e-02
 6.0960000e-02
 5.1680000e-02
 4.2800000e-02
 3.4500000e-02
 2.6600000e-02
 1.9000000e-02
 1.1860000e-02
 5.1400000e-03
 2.8000000e-04
-1.5699247e-16
 0.0000000e+00
-3.5110803e-19
-2.5196858e-20
 0.0000000e+00
-1.3027367e-22
 0.0000000e+00
-6.7167066e-25
-4.8141912e-26
 0.0000000e+00
-2.4847730e-28
 0.0000000e+00
-1.2798479e-30
-9.1902295e-32
 0.0000000e+00
-5.0659661e-34
 0.0000000e+00
-6.3866918e-33
-8.8919415e-32
 0.0000000e+00
-1.7248917e-29
 0.0000000e+00
-3.3465272e-27
-4.6621967e-26
 0.0000000e+00
-9.0407532e-24
 0.0000000e+00
-1.7538664e-21
-2.4428430e-20
 0.0000000e+00
-4.7392645e-18
-6.0000000e-05
 7.0000000e-04
 6.7800000e-03
 1.4440000e-02
 2.2800000e-02
 3.2100000e-02
 4.2240000e-02
 5.3200000e-02
 6.4940000e-02
 7.7400000e-02
 9.0540000e-02
 1.0426000e-01
 1.1842000e-01
 1.3298000e-01
 1.4770000e-01
 1.6258000e-01
 1.7730000e-01
 1.9162000e-01
 2.0532000e-01
 2.1830000e-01
 2.2990000e-01
 2.4040000e-01
 2.4952000e-01
 2.5704000e-01
 2.6290000e-01
 2.6696000e-01
 2.6928000e-01
 2.6968000e-01
 2.6796000e-01
 2.6450000e-01
 2.5910000e-01
 2.5182000e-01
 2.4270000e-01
 2.3224000e-01
 2.2060000e-01
 2.0794000e-01
 1.9460000e-01
 1.8084000e-01
 1.6664000e-01
 1.5240000e-01
 1.3816000e-01
 1.2408000e-01
 1.1040000e-01
 9.7160000e-02
 8.4400000e-02
 7.2420000e-02
 6.1040000e-02
 5.0560000e-02
 4.0920000e-02
 3.2100000e-02
 2.4340000e-02
 1.7380000e-02
 1.1140000e-02
 5.6600000e-03
 9.0000000e-04
-4.0000000e-05
 0.0000000e+00
 3.7227166e-19
 0.0000000e+00
 1.9163273e-21
 1.3772756e-22
 0.0000000e+00
 7.1005184e-25
 0.0000000e+00
 3.6654441e-27
 2.6237135e-28
 0.0000000e+00
 1.3543164e-30
 0.0000000e+00
 6.9616975e-33
 4.7578173e-34
 0.0000000e+00
-4.8015745e-33
 0.0000000e+00
-9.3196027e-31
-1.2982757e-29
 0.0000000e+00
-2.5177310e-27
-3.5067288e-26
-4.8853287e-25
-6.8047186e-24
 0.0000000e+00
-1.3198467e-21
-1.8386714e-20
-2.5608855e-19
-3.5665915e-18
-7.4000000e-04
-5.3000000e-03
-8.2000000e-03
-1.0600000e-02
-1.2940000e-02
-1.5440000e-02
-1.8480000e-02
-2.2360000e-02
-2.7700000e-02
-3.4700000e-02
-4.4200000e-02
-5.7240000e-02
-7.3840000e-02
-9.3500000e-02
-1.1530000e-01
-1.3762000e-01
-1.5858000e-01
-1.7528000e-01
-1.8500000e-01
-1.8202000e-01
-1.6480000e-01
-1.2920000e-01
-7.3060000e-02
 3.9000000e-03
 1.0634000e-01
 2.3088000e-01
 3.7592000e-01
 5.3334000e-01
 6.9420000e-01
 8.4858000e-01
 9.8542000e-01
 1.0914200e+00
 1.1519200e+00
 1.1642000e+00
 1.1210800e+00
 1.0346200e+00
 9.0798000e-01
 7.5156000e-01
 5.7880000e-01
 4.0420000e-01
 2.3852000e-01
 8.9480000e-02
-3.7640000e-02
-1.4120000e-01
-2.1586000e-01
-2.6602000e-01
-2.9194000e-01
-2.9660000e-01
-2.8530000e-01
-2.6096000e-01
-2.2938000e-01
-1.9346000e-01
-1.5698000e-01
-1.2250000e-01
-9.3380000e-02
-6.9340000e-02
-5.0460000e-02
-3.6060000e-02
-2.5200000e-02
-1.7800000e-02
-1.2480000e-02
-8.7200000e-03
-5.8200000e-03
-3.2000000e-03
-8.6000000e-04
 8.0000000e-05
-9.8476782e-18
-7.0637940e-19
 0.0000000e+00
-3.6429193e-21
-2.6122496e-22
-1.8782956e-23
-1.3473118e-24
 0.0000000e+00
-6.9379774e-27
-4.9889331e-28
 0.0000000e+00
-2.5723176e-30
 0.0000000e+00
-1.3272585e-32
-9.5279606e-34
 0.0000000e+00
-4.9014917e-36
 0.0000000e+00
-2.5277831e-38
-1.8149633e-39
 0.0000000e+00
-9.3764042e-42
 0.0000000e+00
-5.3666368e-44
-7.8768668e-44
 0.0000000e+00
-1.4608732e-41
 0.0000000e+00
-2.8347046e-39
-3.9475451e-38
 0.0000000e+00
-7.6579789e-36
 0.0000000e+00
-1.4855853e-33
-2.0690342e-32
 0.0000000e+00
-4.0143554e-30
 0.0000000e+00
-7.7887456e-28
-1.0846406e-26
 0.0000000e+00
-2.1041820e-24
 0.0000000e+00
-4.0826988e-22
-5.6852851e-21
 0.0000000e+00
-1.1028504e-18
 0.0000000e+00
-2.1391777e-16
 2.8800000e-03
 5.2800000e-03
 7.8400000e-03
 1.0600000e-02
 1.3700000e-02
 1.7040000e-02
 2.0640000e-02
 2.4540000e-02
 2.8800000e-02
 3.3400000e-02
 3.8340000e-02
 4.3620000e-02
 4.9480000e-02
 5.5600000e-02
 6.2320000e-02
 6.9420000e-02
 7.6940000e-02
 8.5080000e-02
 9.3700000e-02
 1.0278000e-01
 1.1244000e-01
 1.2260000e-01
 1.3322000e-01
 1.4430000e-01
 1.5584000e-01
 1.6796000e-01
 1.8052000e-01
 1.9328000e-01
 2.0660000e-01
 2.2020000e-01
 2.3396000e-01
 2.4812000e-01
 2.6230000e-01
 2.7660000e-01
 2.9100000e-01
 3.0538000e-01
 3.1954000e-01
 3.3358000e-01
 3.4740000e-01
 3.6078000e-01
 3.7378000e-01
 3.8626000e-01
 3.9804000e-01
 4.0930000e-01
 4.1952000e-01
 4.2900000e-01
 4.3756000e-01
 4.4506000e-01
 4.5170000e-01
 4.5706000e-01
 4.6144000e-01
 4.6464000e-01
 4.6670000e-01
 4.6760000e-01
 4.7212000e-01
 4.7704000e-01
 4.8080000e-01
 4.8344000e-01
 4.8480000e-01
 4.8472000e-01
 4.8352000e-01
 4.8096000e-01
 4.7732000e-01
 4.7270000e-01
 4.6676000e-01
 4.5994000e-01
 4.5210000e-01
 4.4352000e-01
 4.3410000e-01
 4.2374000e-01
 4.1276000e-01
 4.0108000e-01
 3.8874000e-01
 3.7590000e-01
 3.6266000e-01
 3.4884000e-01
 3.3468000e-01
 3.2026000e-01
 3.0550000e-01
 2.9056000e-01
 2.7550000e-01
 2.6038000e-01
 2.4524000e-01
 2.3020000e-01
 2.1522000e-01
 2.0048000e-01
 1.8608000e-01
 1.7196000e-01
 1.5830000e-01
 1.4508000e-01
 1.3236000e-01
 1.2004000e-01
 1.0832000e-01
 9.6900000e-02
 8.6020000e-02
 7.5640000e-02
 6.5720000e-02
 5.6280000e-02
 4.7200000e-02
 3.8580000e-02
 3.0520000e-02
 2.2680000e-02
 1.5400000e-02
 8.5000000e-03
 2.0800000e-03
-1.6000000e-04
 1.8274271e-17
 0.0000000e+00
 9.4282221e-20
 0.0000000e+00
 4.8585810e-22
 3.4855406e-23
 0.0000000e+00
 1.7966363e-25
 0.0000000e+00
 9.2670078e-28
 6.6562190e-29
 0.0000000e+00
 3.4268118e-31
 0.0000000e+00
 1.7774022e-33
 2.4944645e-34
 0.0000000e+00
 2.3823599e-32
 0.0000000e+00
 4.6214627e-30
 6.4386196e-29
 0.0000000e+00
 1.2491720e-26
 0.0000000e+00
 2.4231429e-24
 3.3746322e-23
 0.0000000e+00
 6.5451930e-21
 0.0000000e+00
 1.2699911e-18
 1.7685853e-17
-2.0000000e-05
 3.1000000e-03
 1.0520000e-02
 1.8560000e-02
 2.7360000e-02
 3.7060000e-02
 4.7600000e-02
 5.8980000e-02
 7.1080000e-02
 8.3880000e-02
 9.7340000e-02
 1.1130000e-01
 1.2566000e-01
 1.4034000e-01
 1.5514000e-01
 1.6998000e-01
 1.8450000e-01
 1.9856000e-01
 2.1190000e-01
 2.2422000e-01
 2.3530000e-01
 2.4520000e-01
 2.5348000e-01
 2.6018000e-01
 2.6514000e-01
 2.6832000e-01
 2.7000000e-01
 2.6900000e-01
 2.6650000e-01
 2.6210000e-01
 2.5566000e-01
 2.4750000e-01
 2.3760000e-01
 2.2660000e-01
 2.1436000e-01
 2.0134000e-01
 1.8780000e-01
 1.7376000e-01
 1.5952000e-01
 1.4528000e-01
 1.3108000e-01
 1.1720000e-01
 1.0372000e-01
 9.0720000e-02
 7.8320000e-02
 6.6660000e-02
 5.5600000e-02
 4.5640000e-02
 3.6420000e-02
 2.8100000e-02
 2.0780000e-02
 1.4100000e-02
 8.3000000e-03
 3.2200000e-03
 1.0000000e-04
 0.0000000e+00
-1.3891666e-18
-9.9573128e-20
 0.0000000e+00
-5.1431841e-22
 0.0000000e+00
-2.6469780e-24
-1.9008610e-25
 0.0000000e+00
-9.7969204e-28
 0.0000000e+00
-5.0588072e-30
-3.6287602e-31
 0.0000000e+00
-1.8612187e-33
-4.1600087e-35
 1.2775079e-33
 1.7926864e-32
 0.0000000e+00
 3.4782455e-30
 4.8442370e-29
 6.7466919e-28
 9.3975472e-27
 0.0000000e+00
 1.8231061e-24
 2.5392460e-23
 3.5367861e-22
 4.9256660e-21
 0.0000000e+00
 9.5557243e-19
 1.3308799e-17
-3.7000000e-03
-6.8400000e-03
-9.4000000e-03
-1.1800000e-02
-1.4140000e-02
-1.6800000e-02
-2.0280000e-02
-2.4820000e-02
-3.0900000e-02
-3.9100000e-02
-5.0200000e-02
-6.5120000e-02
-8.3340000e-02
-1.0422000e-01
-1.2650000e-01
-1.4850000e-01
-1.6764000e-01
-1.8116000e-01
-1.8516000e-01
-1.7534000e-01
-1.5000000e-01
-1.0366000e-01
-3.7220000e-02
 5.2300000e-02
 1.6594000e-01
 3.0080000e-01
 4.5374000e-01
 6.1380000e-01
 7.7292000e-01
 9.1982000e-01
 1.0443000e+00
 1.1275600e+00
 1.1641200e+00
 1.1482800e+00
 1.0830000e+00
 9.7670000e-01
 8.3248000e-01
 6.6656000e-01
 4.9072000e-01
 3.1988000e-01
 1.6100000e-01
 2.3120000e-02
-9.2480000e-02
-1.8168000e-01
-2.4390000e-01
-2.8250000e-01
-2.9652000e-01
-2.9266000e-01
-2.7418000e-01
-2.4592000e-01
-2.1170000e-01
-1.7510000e-01
-1.3938000e-01
-1.0722000e-01
-8.0780000e-02
-5.9100000e-02
-4.2780000e-02
-3.0240000e-02
-2.1200000e-02
-1.4920000e-02
-1.0400000e-02
-7.2200000e-03
-4.4800000e-03
-2.0000000e-03
-1.4000000e-04
 0.0000000e+00
 0.0000000e+00
 3.7851666e-19
 0.0000000e+00
 0.0000000e+00
 0.0000000e+00
 0.0000000e+00
 7.2295586e-25
 5.1864224e-26
 3.7223128e-27
 0.0000000e+00
 0.0000000e+00
 1.3782978e-30
 0.0000000e+00
 0.0000000e+00
 0.0000000e+00
 0.0000000e+00
 2.6276907e-36
 1.8883141e-37
 1.3551099e-38
 0.0000000e+00
 0.0000000e+00
 5.0188099e-42
 0.0000000e+00
 0.0000000e+00
 0.0000000e+00
 0.0000000e+00
 1.0904088e-40
 1.5188122e-39
 2.1155372e-38
 0.0000000e+00
 0.0000000e+00
 0.0000000e+00
 7.9610240e-34
 0.0000000e+00
 0.0000000e+00
 0.0000000e+00
 0.0000000e+00
 4.1736674e-28
 5.8120747e-27
 0.0000000e+00
 0.0000000e+00
 0.0000000e+00
 2.1875685e-22
 0.0000000e+00
 0.0000000e+00
 0.0000000e+00
 0.0000000e+00
 1.1466939e-16
 1.0400000e-03
 4.0000000e-03
 6.5600000e-03
 9.1600000e-03
 1.2120000e-02
 1.5340000e-02
 1.8800000e-02
 2.2540000e-02
 2.6640000e-02
 3.1040000e-02
 3.5840000e-02
 4.0900000e-02
 4.6520000e-02
 5.2480000e-02
 5.8960000e-02
 6.5800000e-02
 7.3100000e-02
 8.0960000e-02
 8.9300000e-02
 9.8180000e-02
 1.0754000e-01
 1.1740000e-01
 1.2786000e-01
 1.3870000e-01
 1.4998000e-01
 1.6184000e-01
 1.7420000e-01
 1.8684000e-01
 1.9988000e-01
 2.1340000e-01
 2.2704000e-01
 2.4100000e-01
 2.5518000e-01
 2.6948000e-01
 2.8380000e-01
 2.9820000e-01
 3.1250000e-01
 3.2658000e-01
 3.4052000e-01
 3.5412000e-01
 3.6734000e-01
 3.8010000e-01
 3.9224000e-01
 4.0370000e-01
 4.1450000e-01
 4.2436000e-01
 4.3340000e-01
 4.4142000e-01
 4.4850000e-01
 4.5450000e-01
 4.5938000e-01
 4.6320000e-01
 4.6578000e-01
 4.6736000e-01
 4.6944000e-01
 4.7476000e-01
 4.7920000e-01
 4.8228000e-01
 4.8424000e-01
 4.8512000e-01
 4.8416000e-01
 4.8240000e-01
 4.7928000e-01
 4.7510000e-01
 4.6982000e-01
 4.6348000e-01
 4.5610000e-01
 4.4792000e-01
 4.3890000e-01
 4.2898000e-01
 4.1834000e-01
 4.0700000e-01
 3.9498000e-01
 3.8238000e-01
 3.6934000e-01
 3.5582000e-01
 3.4180000e-01
 3.2750000e-01
 3.1294000e-01
 2.9806000e-01
 2.8304000e-01
 2.6790000e-01
 2.5280000e-01
 2.3772000e-01
 2.2268000e-01
 2.0782000e-01
 1.9320000e-01
 1.7896000e-01
 1.6510000e-01
 1.5166000e-01
 1.3864000e-01
 1.2620000e-01
 1.1412000e-01
 1.0258000e-01
 9.1460000e-02
 8.0740000e-02
 7.0600000e-02
 6.0960000e-02
 5.1680000e-02
 4.2800000e-02
 3.4500000e-02
 2.6600000e-02
 1.9000000e-02
 1.1860000e-02
 5.1400000e-03
 2.8000000e-04
 0.0000000e+00
 0.0000000e+00
 0.0000000e+00
-5.0480453e-20
-3.6239458e-21
-2.6037793e-22
 0.0000000e+00
 0.0000000e+00
-9.6325182e-26
 0.0000000e+00
 0.0000000e+00
 0.0000000e+00
 0.0000000e+00
 0.0000000e+00
-1.3203559e-32
-1.0138095e-33
 0.0000000e+00
 0.0000000e+00
 0.0000000e+00
-2.4771021e-30
 0.0000000e+00
 0.0000000e+00
 0.0000000e+00
 0.0000000e+00
-1.2983840e-24
-1.8082830e-23
 0.0000000e+00
 0.0000000e+00
 0.0000000e+00
-6.8055370e-19
 0.0000000e+00
-6.0000000e-05
 7.0000000e-04
 6.7800000e-03
 1.4440000e-02
 2.2800000e-02
 3.2100000e-02
 4.2240000e-02
 5.3200000e-02
 6.4940000e-02
 7.7400000e-02
 9.0540000e-02
 1.0426000e-01
 1.1842000e-01
 1.3298000e-01
 1.4770000e-01
 1.6258000e-01
 1.7730000e-01
 1.9162000e-01
 2.0532000e-01
 2.1830000e-01
 2.2990000e-01
 2.4040000e-01
 2.4952000e-01
 2.5704000e-01
 2.6290000e-01
 2.6696000e-01
 2.6928000e-01
 2.6968000e-01
 2.6796000e-01
 2.6450000e-01
 2.5910000e-01
 2.5182000e-01
 2.4270000e-01
 2.3224000e-01
 2.2060000e-01
 2.0794000e-01
 1.9460000e-01
 1.8084000e-01
 1.6664000e-01
 1.5240000e-01
 1.3816000e-01
 1.2408000e-01
 1.1040000e-01
 9.7160000e-02
 8.4400000e-02
 7.2420000e-02
 6.1040000e-02
 5.0560000e-02
 4.0920000e-02
 3.2100000e-02
 2.4340000e-02
 1.7380000e-02
 1.1140000e-02
 5.6600000e-03
 9.0000000e-04
-4.0000000e-05
 0.0000000e+00
 0.0000000e+00
 5.3472851e-20
 0.0000000e+00
 0.0000000e+00
 0.0000000e+00
 0.0000000e+00
 1.0195001e-25
 7.3257183e-27
 0.0000000e+00
 0.0000000e+00
 0.0000000e+00
 1.9445421e-31
 0.0000000e+00
 0.0000000e+00
 0.0000000e+00
 0.0000000e+00
-1.3383025e-31
-1.8639994e-30
 0.0000000e+00
 0.0000000e+00
 0.0000000e+00
-7.0152671e-26
 0.0000000e+00
 0.0000000e+00
 0.0000000e+00
 0.0000000e+00
-3.6766651e-20
-5.1219879e-19
-7.1331829e-18
-7.4000000e-04
-5.3000000e-03
-8.2000000e-03
-1.0600000e-02
-1.2940000e-02
-1.5440000e-02
-1.8480000e-02
-2.2360000e-02
-2.7700000e-02
-3.4700000e-02
-4.4200000e-02
-5.7240000e-02
-7.3840000e-02
-9.3500000e-02
-1.1530000e-01
-1.3762000e-01
-1.5858000e-01
-1.7528000e-01
-1.8500000e-01
-1.8202000e-01
-1.6480000e-01
-1.2920000e-01
-7.3060000e-02
 3.9000000e-03
 1.0634000e-01
 2.3088000e-01
 3.7592000e-01
 5.3334000e-01
 6.9420000e-01
 8.4858000e-01
 9.8542000e-01
 1.0914200e+00
 1.1519200e+00
 1.1642000e+00
 1.1210800e+00
 1.0346200e+00
 9.0798000e-01
 7.5156000e-01
 5.7880000e-01
 4.0420000e-01
 2.3852000e-01
 8.9480000e-02
-3.7640000e-02
-1.4120000e-01
-2.1586000e-01
-2.6602000e-01
-2.9194000e-01
-2.9660000e-01
-2.8530000e-01
-2.6096000e-01
-2.2938000e-01
-1.9346000e-01
-1.5698000e-01
-1.2250000e-01
-9.3380000e-02
-6.9340000e-02
-5.0460000e-02
-3.6060000e-02
-2.5200000e-02
-1.7800000e-02
-1.2480000e-02
-8.7200000e-03
-5.8200000e-03
-3.2000000e-03
-8.6000000e-04
 8.0000000e-05
 0.0000000e+00
 0.0000000e+00
-1.0148132e-19
-7.2858386e-21
 0.0000000e+00
 0.0000000e+00
 0.0000000e+00
-1.9364298e-25
 0.0000000e+00
 0.0000000e+00
 0.0000000e+00
 0.0000000e+00
-3.6918690e-31
-2.6505726e-32
 0.0000000e+00
 0.0000000e+00
 0.0000000e+00
-7.0446906e-37
 0.0000000e+00
 0.0000000e+00
 0.0000000e+00
 0.0000000e+00
-1.3448160e-42
-1.0740448e-43
 0.0000000e+00
 0.0000000e+00
 0.0000000e+00
-4.0692308e-40
 0.0000000e+00
 0.0000000e+00
 0.0000000e+00
 0.0000000e+00
-2.1332563e-34
-2.9714788e-33
 0.0000000e+00
 0.0000000e+00
 0.0000000e+00
-1.1181882e-28
 0.0000000e+00
 0.0000000e+00
 0.0000000e+00
 0.0000000e+00
-5.8609386e-23
-8.1632800e-22
 0.0000000e+00
 0.0000000e+00
 0.0000000e+00
-3.0724034e-17
 0.0000000e+00
 2.8800000e-03
 5.2800000e-03
 7.8400000e-03
 1.0600000e-02
 1.3700000e-02
 1.7040000e-02
 2.0640000e-02
 2.4540000e-02
 2.8800000e-02
 3.3400000e-02
 3.8340000e-02
 4.3620000e-02
 4.9480000e-02
 5.5600000e-02
 6.2320000e-02
 6.9420000e-02
 7.6940000e-02
 8.5080000e-02
 9.3700000e-02
 1.0278000e-01
 1.1244000e-01
 1.2260000e-01
 1.3322000e-01
 1.4430000e-01
 1.5584000e-01
 1.6796000e-01
 1.8052000e-01
 1.9328000e-01
 2.0660000e-01
 2.2020000e-01
 2.3396000e-01
 2.4812000e-01
 2.6230000e-01
 2.7660000e-01
 2.9100000e-01
 3.0538000e-01
 3.1954000e-01
 3.3358000e-01
 3.4740000e-01
 3.6078000e-01
 3.7378000e-01
 3.8626000e-01
 3.9804000e-01
 4.0930000e-01
 4.1952000e-01
 4.2900000e-01
 4.3756000e-01
 4.4506000e-01
 4.5170000e-01
 4.5706000e-01
 4.6144000e-01
 4.6464000e-01
 4.6670000e-01
 4.6760000e-01
 4.7212000e-01
 4.7704000e-01
 4.8080000e-01
 4.8344000e-01
 4.8480000e-01
 4.8472000e-01
 4.8352000e-01
 4.8096000e-01
 4.7732000e-01
 4.7270000e-01
 4.6676000e-01
 4.5994000e-01
 4.5210000e-01
 4.4352000e-01
 4.3410000e-01
 4.2374000e-01
 4.1276000e-01
 4.0108000e-01
 3.8874000e-01
 3.7590000e-01
 3.6266000e-01
 3.4884000e-01
 3.3468000e-01
 3.2026000e-01
 3.0550000e-01
 2.9056000e-01
 2.7550000e-01
 2.6038000e-01
 2.4524000e-01
 2.3020000e-01
 2.1522000e-01
 2.0048000e-01
 1.8608000e-01
 1.7196000e-01
 1.5830000e-01
 1.4508000e-01
 1.3236000e-01
 1.2004000e-01
 1.0832000e-01
 9.6900000e-02
 8.6020000e-02
 7.5640000e-02
 6.5720000e-02
 5.6280000e-02
 4.7200000e-02
 3.8580000e-02
 3.0520000e-02
 2.2680000e-02
 1.5400000e-02
 8.5000000e-03
 2.0800000e-03
-1.6000000e-04
 0.0000000e+00
 0.0000000e+00
 0.0000000e+00
 1.3536264e-20
 0.0000000e+00
 0.0000000e+00
 0.0000000e+00
 0.0000000e+00
 2.5818375e-26
 1.8546940e-27
 0.0000000e+00
 0.0000000e+00
 0.0000000e+00
 4.9244642e-32
 0.0000000e+00
 0.0000000e+00
 0.0000000e+00
 0.0000000e+00
 6.6362924e-31
 9.2441876e-30
 0.0000000e+00
 0.0000000e+00
 0.0000000e+00
 3.4785013e-25
 0.0000000e+00
 0.0000000e+00
 0.0000000e+00
 0.0000000e+00
 1.8235738e-19
 2.5398954e-18
 0.0000000e+00
-2.0000000e-05
 3.1000000e-03
 1.0520000e-02
 1.8560000e-02
 2.7360000e-02
 3.7060000e-02
 4.7600000e-02
 5.8980000e-02
 7.1080000e-02
 8.3880000e-02
 9.7340000e-02
 1.1130000e-01
 1.2566000e-01
 1.4034000e-01
 1.5514000e-01
 1.6998000e-01
 1.8450000e-01
 1.9856000e-01
 2.1190000e-01
 2.2422000e-01
 2.3530000e-01
 2.4520000e-01
 2.5348000e-01
 2.6018000e-01
 2.6514000e-01
 2.6832000e-01
 2.7000000e-01
 2.6900000e-01
 2.6650000e-01
 2.6210000e-01
 2.5566000e-01
 2.4750000e-01
 2.3760000e-01
 2.2660000e-01
 2.1436000e-01
 2.0134000e-01
 1.8780000e-01
 1.7376000e-01
 1.5952000e-01
 1.4528000e-01
 1.3108000e-01
 1.1720000e-01
 1.0372000e-01
 9.0720000e-02
 7.8320000e-02
 6.6660000e-02
 5.5600000e-02
 4.5640000e-02
 3.6420000e-02
 2.8100000e-02
 2.0780000e-02
 1.4100000e-02
 8.3000000e-03
 3.2200000e-03
 1.0000000e-04
 0.0000000e+00
 0.0000000e+00
 0.0000000e+00
-1.4316890e-20
-1.0279592e-21
 0.0000000e+00
 0.0000000e+00
 0.0000000e+00
-2.7286620e-26
 0.0000000e+00
 0.0000000e+00
 0.0000000e+00
 0.0000000e+00
-5.2084541e-32
-3.7273678e-33
 0.0000000e+00
 0.0000000e+00
 0.0000000e+00
 4.9942784e-31
 0.0000000e+00
 0.0000000e+00
 0.0000000e+00
 0.0000000e+00
 2.6178198e-25
 3.6462121e-24
 0.0000000e+00
 0.0000000e+00
 0.0000000e+00
 1.3722747e-19
 0.0000000e+00
 0.0000000e+00
-3.7000000e-03
-6.8400000e-03
-9.4000000e-03
-1.1800000e-02
-1.4140000e-02
-1.6800000e-02
-2.0280000e-02
-2.4820000e-02
-3.0900000e-02
-3.9100000e-02
-5.0200000e-02
-6.5120000e-02
-8.3340000e-02
-1.0422000e-01
-1.2650000e-01
-1.4850000e-01
-1.6764000e-01
-1.8116000e-01
-1.8516000e-01
-1.7534000e-01
-1.5000000e-01
-1.0366000e-01
-3.7220000e-02
 5.2300000e-02
 1.6594000e-01
 3.0080000e-01
 4.5374000e-01
 6.1380000e-01
 7.7292000e-01
 9.1982000e-01
 1.0443000e+00
 1.1275600e+00
 1.1641200e+00
 1.1482800e+00
 1.0830000e+00
 9.7670000e-01
 8.3248000e-01
 6.6656000e-01
 4.9072000e-01
 3.1988000e-01
 1.6100000e-01
 2.3120000e-02
-9.2480000e-02
-1.8168000e-01
-2.4390000e-01
-2.8250000e-01
-2.9652000e-01
-2.9266000e-01
-2.7418000e-01
-2.4592000e-01
-2.1170000e-01
-1.7510000e-01
-1.3938000e-01
-1.0722000e-01
-8.0780000e-02
-5.9100000e-02
-4.2780000e-02
-3.0240000e-02
-2.1200000e-02
-1.4920000e-02
-1.0400000e-02
-7.2200000e-03
-4.4800000e-03
-2.0000000e-03
-1.4000000e-04
 0.0000000e+00
 0.0000000e+00
 3.7851666e-19
 2.7180948e-20
 0.0000000e+00
 0.0000000e+00
 0.0000000e+00
 7.2295586e-25
 5.1864224e-26
 0.0000000e+00
 0.0000000e+00
 0.0000000e+00
 1.3782978e-30
 9.8962601e-32
 0.0000000e+00
 0.0000000e+00
 0.0000000e+00
 2.6276907e-36
 1.8883141e-37
 0.0000000e+00
 0.0000000e+00
 0.0000000e+00
 0.0000000e+00
 3.6318069e-43
 0.0000000e+00
 0.0000000e+00
 0.0000000e+00
 0.0000000e+00
 1.5189591e-39
 2.1154784e-38
 0.0000000e+00
 0.0000000e+00
 0.0000000e+00
 7.9610240e-34
 0.0000000e+00
 0.0000000e+00
 0.0000000e+00
 0.0000000e+00
 4.1736674e-28
 5.8120747e-27
 0.0000000e+00
 0.0000000e+00
 0.0000000e+00
 2.1875685e-22
 0.0000000e+00
 0.0000000e+00
 0.0000000e+00
 0.0000000e+00
 1.1466939e-16
 1.0400000e-03
 4.0000000e-03
 6.5600000e-03
 9.1600000e-03
 1.2120000e-02
 1.5340000e-02
 1.8800000e-02
 2.2540000e-02
 2.6640000e-02
 3.1040000e-02
 3.5840000e-02
 4.0900000e-02
 4.6520000e-02
 5.2480000e-02
 5.8960000e-02
 6.5800000e-02
 7.3100000e-02
 8.0960000e-02
 8.9300000e-02
 9.8180000e-02
 1.0754000e-01
 1.1740000e-01
 1.2786000e-01
 1.3870000e-01
 1.4998000e-01
 1.6184000e-01
 1.7420000e-01
 1.8684000e-01
 1.9988000e-01
 2.1340000e-01
 2.2704000e-01
 2.4100000e-01
 2.5518000e-01
 2.6948000e-01
 2.8380000e-01
 2.9820000e-01
 3.1250000e-01
 3.2658000e-01
 3.4052000e-01
 3.5412000e-01
 3.6734000e-01
 3.8010000e-01
 3.9224000e-01
 4.0370000e-01
 4.1450000e-01
 4.2436000e-01
 4.3340000e-01
 4.4142000e-01
 4.4850000e-01
 4.5450000e-01
 4.5938000e-01
 4.6320000e-01
 4.6578000e-01
 4.6736000e-01
 4.6944000e-01
 4.7476000e-01
 4.7920000e-01
 4.8228000e-01
 4.8424000e-01
 4.8512000e-01
 4.8416000e-01
 4.8240000e-01
 4.7928000e-01
 4.7510000e-01
 4.6982000e-01
 4.6348000e-01
 4.5610000e-01
 4.4792000e-01
 4.3890000e-01
 4.2898000e-01
 4.1834000e-01
 4.0700000e-01
 3.9498000e-01
 3.8238000e-01
 3.6934000e-01
 3.5582000e-01
 3.4180000e-01
 3.2750000e-01
 3.1294000e-01
 2.9806000e-01
 2.8304000e-01
 2.6790000e-01
 2.5280000e-01
 2.3772000e-01
 2.2268000e-01
 2.0782000e-01
 1.9320000e-01
 1.7896000e-01
 1.6510000e-01
 1.5166000e-01
 1.3864000e-01
 1.2620000e-01
 1.1412000e-01
 1.0258000e-01
 9.1460000e-02
 8.0740000e-02
 7.0600000e-02
 6.0960000e-02
 5.1680000e-02
 4.2800000e-02
 3.4500000e-02
 2.6600000e-02
 1.9000000e-02
 1.1860000e-02
 5.1400000e-03
 2.8000000e-04
 0.0000000e+00
 0.0000000e+00
 0.0000000e+00
 0.0000000e+00
-3.6266563e-21
-2.6020852e-22
 0.0000000e+00
 0.0000000e+00
 0.0000000e+00
-6.9198828e-27
 0.0000000e+00
 0.0000000e+00
 0.0000000e+00
 0.0000000e+00
-1.3198629e-32
-1.0138095e-33
 0.0000000e+00
 0.0000000e+00
 0.0000000e+00
-2.4771021e-30
 0.0000000e+00
 0.0000000e+00
 0.0000000e+00
 0.0000000e+00
-1.2983840e-24
-1.8082830e-23
 0.0000000e+00
 0.0000000e+00
 0.0000000e+00
-6.8055370e-19
 0.0000000e+00
-6.0000000e-05
 7.0000000e-04
 6.7800000e-03
 1.4440000e-02
 2.2800000e-02
 3.2100000e-02
 4.2240000e-02
 5.3200000e-02
 6.4940000e-02
 7.7400000e-02
 9.0540000e-02
 1.0426000e-01
 1.1842000e-01
 1.3298000e-01
 1.4770000e-01
 1.6258000e-01
 1.7730000e-01
 1.9162000e-01
 2.0532000e-01
 2.1830000e-01
 2.2990000e-01
 2.4040000e-01
 2.4952000e-01
 2.5704000e-01
 2.6290000e-01
 2.6696000e-01
 2.6928000e-01
 2.6968000e-01
 2.6796000e-01
 2.6450000e-01
 2.5910000e-01
 2.5182000e-01
 2.4270000e-01
 2.3224000e-01
 2.2060000e-01
 2.0794000e-01
 1.9460000e-01
 1.8084000e-01
 1.6664000e-01
 1.5240000e-01
 1.3816000e-01
 1.2408000e-01
 1.1040000e-01
 9.7160000e-02
 8.4400000e-02
 7.2420000e-02
 6.1040000e-02
 5.0560000e-02
 4.0920000e-02
 3.2100000e-02
 2.4340000e-02
 1.7380000e-02
 1.1140000e-02
 5.6600000e-03
 9.0000000e-04
-4.0000000e-05
 0.0000000e+00
 0.0000000e+00
 5.3472851e-20
 3.8326547e-21
 0.0000000e+00
 0.0000000e+00
 0.0000000e+00
 1.0195001e-25
 7.3257183e-27
 0.0000000e+00
 0.0000000e+00
 0.0000000e+00
 1.9445421e-31
 1.3962838e-32
 0.0000000e+00
 0.0000000e+00
 0.0000000e+00
-1.3383025e-31
-1.8639994e-30
 0.0000000e+00
 0.0000000e+00
 0.0000000e+00
-7.0152671e-26
-9.7698302e-25
 0.0000000e+00
 0.0000000e+00
 0.0000000e+00
-3.6766651e-20
-5.1219879e-19
 0.0000000e+00
-7.4000000e-04
-5.3000000e-03
-8.2000000e-03
-1.0600000e-02
-1.2940000e-02
-1.5440000e-02
-1.8480000e-02
-2.2360000e-02
-2.7700000e-02
-3.4700000e-02
-4.4200000e-02
-5.7240000e-02
-7.3840000e-02
-9.3500000e-02
-1.1530000e-01
-1.3762000e-01
-1.5858000e-01
-1.7528000e-01
-1.8500000e-01
-1.8202000e-01
-1.6480000e-01
-1.2920000e-01
-7.3060000e-02
 3.9000000e-03
 1.0634000e-01
 2.3088000e-01
 3.7592000e-01
 5.3334000e-01
 6.9420000e-01
 8.4858000e-01
 9.8542000e-01
 1.0914200e+00
 1.1519200e+00
 1.1642000e+00
 1.1210800e+00
 1.0346200e+00
 9.0798000e-01
 7.5156000e-01
 5.7880000e-01
 4.0420000e-01
 2.3852000e-01
 8.9480000e-02
-3.7640000e-02
-1.4120000e-01
-2.1586000e-01
-2.6602000e-01
-2.9194000e-01
-2.9660000e-01
-2.8530000e-01
-2.6096000e-01
-2.2938000e-01
-1.9346000e-01
-1.5698000e-01
-1.2250000e-01
-9.3380000e-02
-6.9340000e-02
-5.0460000e-02
-3.6060000e-02
-2.5200000e-02
-1.7800000e-02
-1.2480000e-02
-8.7200000e-03
-5.8200000e-03
-3.2000000e-03
-8.6000000e-04
 8.0000000e-05
 0.0000000e+00
 0.0000000e+00
-1.0148132e-19
-7.2858386e-21
 0.0000000e+00
 0.0000000e+00
 0.0000000e+00
-1.9364298e-25
 0.0000000e+00
 0.0000000e+00
 0.0000000e+00
 0.0000000e+00
-3.6934468e-31
-2.6505726e-32
 0.0000000e+00
 0.0000000e+00
 0.0000000e+00
-7.0476999e-37
-5.0593277e-38
 0.0000000e+00
 0.0000000e+00
 0.0000000e+00
-1.3453900e-42
-1.0740448e-43
 0.0000000e+00
 0.0000000e+00
 0.0000000e+00
-4.0692308e-40
-5.6691154e-39
 0.0000000e+00
 0.0000000e+00
 0.0000000e+00
-2.1332563e-34
-2.9714788e-33
 0.0000000e+00
 0.0000000e+00
 0.0000000e+00
-1.1181882e-28
-1.5575068e-27
 0.0000000e+00
 0.0000000e+00
 0.0000000e+00
-5.8609386e-23
-8.1632800e-22
 0.0000000e+00
 0.0000000e+00
 0.0000000e+00
-3.0724034e-17
-4.2794657e-16
 2.8800000e-03
 5.2800000e-03
 7.8400000e-03
 1.0600000e-02
 1.3700000e-02
 1.7040000e-02
 2.0640000e-02
 2.4540000e-02
 2.8800000e-02
 3.3400000e-02
 3.8340000e-02
 4.3620000e-02
 4.9480000e-02
 5.5600000e-02
 6.2320000e-02
 6.9420000e-02
 7.6940000e-02
 8.5080000e-02
 9.3700000e-02
 1.0278000e-01
 1.1244000e-01
 1.2260000e-01
 1.3322000e-01
 1.4430000e-01
 1.5584000e-01
 1.6796000e-01
 1.8052000e-01
 1.9328000e-01
 2.0660000e-01
 2.2020000e-01
 2.3396000e-01
 2.4812000e-01
 2.6230000e-01
 2.7660000e-01
 2.9100000e-01
 3.0538000e-01
 3.1954000e-01
 3.3358000e-01
 3.4740000e-01
 3.6078000e-01
 3.7378000e-01
 3.8626000e-01
 3.9804000e-01
 4.0930000e-01
 4.1952000e-01
 4.2900000e-01
 4.3756000e-01
 4.4506000e-01
 4.5170000e-01
 4.5706000e-01
 4.6144000e-01
 4.6464000e-01
 4.6670000e-01
 4.6760000e-01
 4.7212000e-01
 4.7704000e-01
 4.8080000e-01
 4.8344000e-01
 4.8480000e-01
 4.8472000e-01
 4.8352000e-01
 4.8096000e-01
 4.7732000e-01
 4.7270000e-01
 4.6676000e-01
 4.5994000e-01
 4.5210000e-01
 4.4352000e-01
 4.3410000e-01
 4.2374000e-01
 4.1276000e-01
 4.0108000e-01
 3.8874000e-01
 3.7590000e-01
 3.6266000e-01
 3.4884000e-01
 3.3468000e-01
 3.2026000e-01
 3.0550000e-01
 2.9056000e-01
 2.7550000e-01
 2.6038000e-01
 2.4524000e-01
 2.3020000e-01
 2.1522000e-01
 2.0048000e-01
 1.8608000e-01
 1.7196000e-01
 1.5830000e-01
 1.4508000e-01
 1.3236000e-01
 1.2004000e-01
 1.0832000e-01
 9.6900000e-02
 8.6020000e-02
 7.5640000e-02
 6.5720000e-02
 5.6280000e-02
 4.7200000e-02
 3.8580000e-02
 3.0520000e-02
 2.2680000e-02
 1.5400000e-02
 8.5000000e-03
 2.0800000e-03
-1.6000000e-04
 0.0000000e+00
 0.0000000e+00
 0.0000000e+00
 1.3520001e-20
 9.7103857e-22
 0.0000000e+00
 0.0000000e+00
 0.0000000e+00
 2.5808035e-26
 1.8508166e-27
 0.0000000e+00
 0.0000000e+00
 0.0000000e+00
 4.9264364e-32
 3.5523393e-33
 0.0000000e+00
 0.0000000e+00
 0.0000000e+00
 6.6370812e-31
 9.2441876e-30
 0.0000000e+00
 0.0000000e+00
 0.0000000e+00
 3.4785013e-25
 4.8459549e-24
 0.0000000e+00
 0.0000000e+00
 0.0000000e+00
 1.8234654e-19
 2.5400688e-18
 0.0000000e+00
-2.0000000e-05
 3.1000000e-03
 1.0520000e-02
 1.8560000e-02
 2.7360000e-02
 3.7060000e-02
 4.7600000e-02